,0,1,2,3
0,-3.5389404296875,1.5106201171875,-3.424072265625,-1.9134521484375
1,-2.1290283203125,-1.409912109375,0.1007080078125,-0.201416015625
2,1.395751953125,-0.5035400390625,-2.618408203125,-0.7049560546875
3,-0.9205322265625,-1.611328125,-1.1077880859375,-1.007080078125
4,-5.5531005859375,2.618408203125,0.5035400390625,-4.1290283203125
5,-4.243896484375,-1.007080078125,-0.201416015625,-4.1290283203125
6,-3.9417724609375,-4.7332763671875,-3.424072265625,-7.65380859375
7,-0.215576171875,-1.1077880859375,0.604248046875,-2.7191162109375
8,-1.3233642578125,0.201416015625,3.3233642578125,-1.5106201171875
9,-4.1431884765625,0.3021240234375,-0.1007080078125,-2.3162841796875
10,-2.632568359375,-5.6396484375,0.5035400390625,-0.604248046875
11,0.590087890625,-3.22265625,0.1007080078125,-3.9276123046875
12,-0.3162841796875,-2.5177001953125,0.3021240234375,-0.1007080078125
13,2.7049560546875,-6.1431884765625,3.9276123046875,4.632568359375
14,0.0865478515625,-2.215576171875,-1.1077880859375,2.7191162109375
15,-1.021240234375,-1.5106201171875,0.40283203125,3.424072265625
16,0.6907958984375,-3.62548828125,-2.1148681640625,4.5318603515625
17,-1.5247802734375,-1.3092041015625,-0.8056640625,1.812744140625
18,2.1007080078125,-2.1148681640625,-2.5177001953125,2.4169921875
19,0.992919921875,-3.1219482421875,-1.5106201171875,3.9276123046875
20,2.5035400390625,-0.7049560546875,-1.812744140625,2.618408203125
21,1.1943359375,1.20849609375,-6.9488525390625,-3.3233642578125
22,-1.826904296875,-4.833984375,-3.62548828125,3.7261962890625
23,0.0865478515625,0.1007080078125,-0.3021240234375,1.9134521484375
24,-0.1148681640625,0.9063720703125,-3.424072265625,2.01416015625
25,-2.7332763671875,0.5035400390625,-3.5247802734375,2.5177001953125
26,2.9063720703125,0.1007080078125,-4.43115234375,-0.3021240234375
27,1.2950439453125,-5.035400390625,-2.618408203125,3.1219482421875
28,0.6907958984375,0.201416015625,1.007080078125,1.611328125
29,1.0936279296875,2.215576171875,-2.01416015625,0.9063720703125
30,1.4964599609375,1.9134521484375,-2.215576171875,0.40283203125
31,1.6978759765625,1.5106201171875,-3.62548828125,-1.20849609375
32,-0.01416015625,1.3092041015625,-3.62548828125,-2.7191162109375
33,-0.9205322265625,1.20849609375,-2.5177001953125,-1.9134521484375
34,-7.869384765625,4.9346923828125,-2.618408203125,-0.201416015625
35,2.9063720703125,9.869384765625,-0.5035400390625,-4.3304443359375
36,0.0865478515625,0.5035400390625,-3.826904296875,1.7120361328125
37,-1.7261962890625,2.7191162109375,-3.3233642578125,0.0
38,-2.7332763671875,-0.5035400390625,0.604248046875,-2.81982421875
39,1.798583984375,-0.5035400390625,0.40283203125,-4.1290283203125
40,0.590087890625,0.5035400390625,0.3021240234375,0.1007080078125
41,-1.9276123046875,1.611328125,-1.9134521484375,-5.035400390625
42,-2.229736328125,-0.3021240234375,1.611328125,-1.5106201171875
43,1.4964599609375,-2.5177001953125,1.7120361328125,-6.5460205078125
44,-2.1290283203125,-0.7049560546875,3.22265625,-5.7403564453125
45,-1.5247802734375,5.438232421875,-1.812744140625,-2.5177001953125
46,-0.7191162109375,-2.215576171875,1.3092041015625,-3.7261962890625
47,1.395751953125,-7.1502685546875,1.5106201171875,-4.5318603515625
48,-3.438232421875,-2.4169921875,-0.1007080078125,-4.3304443359375
49,0.79150390625,-0.7049560546875,1.7120361328125,-2.3162841796875
50,-3.1361083984375,-2.9205322265625,0.5035400390625,-5.6396484375
51,-0.4169921875,-2.3162841796875,4.229736328125,-3.1219482421875
52,-3.5389404296875,0.7049560546875,0.0,-4.1290283203125
53,-2.9346923828125,-5.438232421875,1.409912109375,-2.5177001953125
54,-0.7191162109375,-6.1431884765625,4.9346923828125,-2.4169921875
55,1.395751953125,-5.9417724609375,-0.8056640625,-3.9276123046875
56,2.9063720703125,-3.9276123046875,-3.9276123046875,-6.646728515625
57,2.8056640625,-3.1219482421875,0.1007080078125,-4.833984375
58,-0.9205322265625,-3.5247802734375,-2.3162841796875,-4.0283203125
59,-0.215576171875,-2.618408203125,-1.20849609375,-2.01416015625
60,0.0865478515625,-3.7261962890625,0.3021240234375,-0.5035400390625
61,-2.229736328125,-2.5177001953125,-3.3233642578125,0.0
62,-3.438232421875,0.201416015625,-2.9205322265625,-2.81982421875
63,-3.035400390625,-1.9134521484375,-2.7191162109375,-1.20849609375
64,-3.7403564453125,-1.3092041015625,-3.021240234375,1.1077880859375
65,2.7049560546875,-2.81982421875,-3.5247802734375,0.1007080078125
66,3.007080078125,-6.1431884765625,-4.3304443359375,0.604248046875
67,0.4893798828125,2.3162841796875,-5.5389404296875,-0.1007080078125
68,1.395751953125,-1.5106201171875,-5.438232421875,0.3021240234375
69,-0.01416015625,-4.632568359375,-5.7403564453125,2.3162841796875
70,0.8922119140625,-2.9205322265625,-2.9205322265625,0.1007080078125
71,-0.7191162109375,2.7191162109375,-6.9488525390625,-0.1007080078125
72,-0.215576171875,1.1077880859375,-2.4169921875,1.812744140625
73,-3.5389404296875,-1.1077880859375,-2.5177001953125,0.40283203125
74,-0.3162841796875,0.0,-4.9346923828125,-1.9134521484375
75,0.992919921875,1.409912109375,-1.409912109375,0.604248046875
76,-0.215576171875,5.7403564453125,-2.3162841796875,-1.20849609375
77,-2.1290283203125,-4.43115234375,-3.1219482421875,-2.618408203125
78,-6.9630126953125,-0.7049560546875,0.9063720703125,-0.1007080078125
79,-3.7403564453125,2.01416015625,-3.1219482421875,-1.3092041015625
80,-2.9346923828125,0.201416015625,-0.7049560546875,-2.7191162109375
81,-1.021240234375,2.5177001953125,0.7049560546875,0.3021240234375
82,1.0936279296875,1.3092041015625,-3.1219482421875,-3.22265625
83,0.0865478515625,-2.1148681640625,0.7049560546875,0.5035400390625
84,-2.3304443359375,-1.5106201171875,5.23681640625,1.7120361328125
85,-1.9276123046875,-3.424072265625,1.007080078125,-2.3162841796875
86,-1.021240234375,-1.9134521484375,0.40283203125,-1.20849609375
87,1.4964599609375,-3.5247802734375,0.7049560546875,-0.201416015625
88,-1.1219482421875,-0.5035400390625,3.9276123046875,-1.5106201171875
89,0.0865478515625,-1.9134521484375,-0.1007080078125,-2.3162841796875
90,0.4893798828125,-2.7191162109375,-1.409912109375,-2.7191162109375
91,0.0865478515625,0.5035400390625,-2.4169921875,1.007080078125
92,-0.7191162109375,-2.1148681640625,1.007080078125,0.1007080078125
93,-1.424072265625,-1.3092041015625,1.3092041015625,-1.1077880859375
94,1.4964599609375,-4.833984375,-0.1007080078125,-5.7403564453125
95,1.0936279296875,-3.62548828125,-0.604248046875,-1.7120361328125
96,-2.7332763671875,-2.7191162109375,-2.9205322265625,-1.611328125
97,-1.424072265625,-0.1007080078125,-0.40283203125,-0.40283203125
98,1.0936279296875,-1.5106201171875,-0.40283203125,-2.81982421875
99,1.4964599609375,0.201416015625,-3.021240234375,-0.40283203125
100,-0.618408203125,-0.7049560546875,-0.5035400390625,-0.1007080078125
101,0.0865478515625,-2.01416015625,-3.9276123046875,2.7191162109375
102,-1.3233642578125,-3.7261962890625,-3.1219482421875,3.3233642578125
103,2.3021240234375,-3.1219482421875,-3.5247802734375,1.1077880859375
104,1.2950439453125,-0.7049560546875,-2.81982421875,3.9276123046875
105,1.395751953125,-0.3021240234375,-5.6396484375,-1.3092041015625
106,0.590087890625,-3.021240234375,-9.9700927734375,1.5106201171875
107,-2.3304443359375,0.1007080078125,-4.1290283203125,0.1007080078125
108,1.4964599609375,-6.243896484375,-4.833984375,2.5177001953125
109,-2.0283203125,-0.1007080078125,-2.1148681640625,2.9205322265625
110,1.2950439453125,-0.5035400390625,-2.9205322265625,2.5177001953125
111,0.992919921875,-2.7191162109375,-4.833984375,3.9276123046875
112,1.395751953125,0.201416015625,-2.5177001953125,2.01416015625
113,0.388671875,-0.604248046875,-5.1361083984375,1.007080078125
114,1.8992919921875,1.20849609375,-3.826904296875,2.1148681640625
115,1.8992919921875,1.20849609375,-3.021240234375,-0.5035400390625
116,-0.01416015625,1.3092041015625,-3.22265625,-1.409912109375
117,0.0865478515625,1.409912109375,-1.9134521484375,0.5035400390625
118,0.8922119140625,-0.604248046875,-4.7332763671875,2.3162841796875
119,-2.1290283203125,-1.409912109375,-0.1007080078125,2.01416015625
120,1.6978759765625,-1.1077880859375,-2.1148681640625,2.215576171875
121,-1.62548828125,-2.7191162109375,-1.3092041015625,-0.40283203125
122,-1.9276123046875,-4.1290283203125,2.7191162109375,-3.1219482421875
123,-1.5247802734375,-0.3021240234375,2.9205322265625,-1.9134521484375
124,-3.6396484375,2.3162841796875,3.424072265625,-4.229736328125
125,-5.3516845703125,-2.81982421875,-0.1007080078125,-1.812744140625
126,-1.9276123046875,-1.20849609375,-2.5177001953125,-5.23681640625
127,-1.3233642578125,-1.5106201171875,-2.1148681640625,-3.826904296875
128,-0.3162841796875,-4.43115234375,-0.201416015625,-3.021240234375
129,0.590087890625,-7.5531005859375,0.0,-0.604248046875
130,-4.5460205078125,-2.1148681640625,2.3162841796875,0.5035400390625
131,0.0865478515625,-4.5318603515625,2.81982421875,-2.7191162109375
132,-0.7191162109375,-1.9134521484375,3.5247802734375,-6.04248046875
133,-4.04248046875,-3.424072265625,-5.9417724609375,-2.7191162109375
134,-1.62548828125,-3.1219482421875,-4.1290283203125,-1.3092041015625
135,-2.229736328125,-7.049560546875,0.7049560546875,-2.3162841796875
136,-0.215576171875,-2.7191162109375,1.1077880859375,2.5177001953125
137,-1.7261962890625,-2.618408203125,-0.604248046875,-0.201416015625
138,1.8992919921875,-1.5106201171875,-0.3021240234375,-0.3021240234375
139,-1.3233642578125,-2.81982421875,-3.9276123046875,0.5035400390625
140,-0.1148681640625,-2.81982421875,-6.9488525390625,2.618408203125
141,0.4893798828125,-0.7049560546875,-5.035400390625,-3.5247802734375
142,-1.3233642578125,-0.40283203125,-6.646728515625,-2.215576171875
143,0.388671875,-0.7049560546875,-4.5318603515625,0.5035400390625
144,4.9205322265625,3.7261962890625,-0.8056640625,2.9205322265625
145,-2.1290283203125,-0.9063720703125,-5.9417724609375,6.1431884765625
146,-1.424072265625,-2.215576171875,-2.5177001953125,4.1290283203125
147,0.79150390625,1.007080078125,-0.201416015625,3.3233642578125
148,-2.1290283203125,-0.40283203125,-6.3446044921875,0.201416015625
149,3.1077880859375,-0.7049560546875,-3.424072265625,3.424072265625
150,2.8056640625,0.604248046875,-2.7191162109375,0.5035400390625
151,-1.424072265625,0.0,-3.9276123046875,1.7120361328125
152,-2.833984375,-4.7332763671875,-2.3162841796875,5.3375244140625
153,-0.7191162109375,1.1077880859375,-4.1290283203125,-0.40283203125
154,-2.632568359375,0.5035400390625,-2.618408203125,-1.409912109375
155,0.992919921875,-0.201416015625,-2.7191162109375,0.7049560546875
156,-0.1148681640625,2.3162841796875,-0.5035400390625,0.9063720703125
157,-0.215576171875,-1.9134521484375,-1.409912109375,-0.9063720703125
158,-3.5389404296875,0.1007080078125,-2.215576171875,0.1007080078125
159,-0.618408203125,-0.3021240234375,-5.23681640625,-1.3092041015625
160,-0.4169921875,1.20849609375,-4.632568359375,-0.5035400390625
161,1.798583984375,-0.7049560546875,-0.7049560546875,-1.20849609375
162,-1.1219482421875,0.3021240234375,0.1007080078125,-3.1219482421875
163,-2.3304443359375,-3.826904296875,1.1077880859375,-2.3162841796875
164,2.201416015625,-1.9134521484375,-1.007080078125,0.3021240234375
165,-3.5389404296875,0.1007080078125,-0.604248046875,0.1007080078125
166,-0.4169921875,-2.3162841796875,-1.7120361328125,-0.604248046875
167,-3.1361083984375,-2.7191162109375,0.9063720703125,-3.1219482421875
168,-1.3233642578125,-1.409912109375,2.81982421875,-4.3304443359375
169,-2.3304443359375,-5.6396484375,-2.1148681640625,-2.1148681640625
170,-0.9205322265625,-2.3162841796875,0.3021240234375,-3.826904296875
171,-1.021240234375,-4.833984375,0.604248046875,-5.1361083984375
172,1.2950439453125,-3.424072265625,-4.0283203125,-3.021240234375
173,4.5177001953125,-0.5035400390625,-4.5318603515625,-3.424072265625
174,1.8992919921875,-1.9134521484375,-0.7049560546875,-3.021240234375
175,-1.826904296875,-2.1148681640625,-3.1219482421875,-4.5318603515625
176,-2.3304443359375,-5.23681640625,-0.7049560546875,0.9063720703125
177,-0.4169921875,-2.7191162109375,-5.841064453125,-2.9205322265625
178,0.0865478515625,-1.20849609375,-2.3162841796875,-1.9134521484375
179,-3.035400390625,-1.5106201171875,-0.3021240234375,-2.9205322265625
180,-5.65380859375,-5.7403564453125,-0.7049560546875,-1.5106201171875
181,-0.618408203125,-5.1361083984375,-3.62548828125,0.40283203125
182,-2.9346923828125,-1.1077880859375,-5.438232421875,-0.7049560546875
183,1.0936279296875,-3.7261962890625,-3.7261962890625,-0.9063720703125
184,0.2879638671875,0.3021240234375,-3.7261962890625,-0.9063720703125
185,-3.035400390625,-1.611328125,-1.409912109375,-1.3092041015625
186,-1.3233642578125,-0.1007080078125,-7.3516845703125,0.3021240234375
187,-0.3162841796875,1.3092041015625,-7.65380859375,0.8056640625
188,-1.22265625,2.4169921875,-3.826904296875,-4.3304443359375
189,-1.5247802734375,1.611328125,-5.5389404296875,0.1007080078125
190,1.0936279296875,2.5177001953125,-2.7191162109375,2.1148681640625
191,1.0936279296875,3.9276123046875,-0.40283203125,-0.40283203125
192,2.604248046875,0.3021240234375,-3.9276123046875,2.215576171875
193,1.6978759765625,0.604248046875,-3.5247802734375,5.3375244140625
194,2.7049560546875,1.812744140625,-2.9205322265625,2.3162841796875
195,-1.22265625,0.0,-3.9276123046875,4.5318603515625
196,-0.5177001953125,-0.1007080078125,0.9063720703125,1.007080078125
197,-2.1290283203125,0.8056640625,-1.007080078125,-2.9205322265625
198,-3.1361083984375,2.1148681640625,-2.3162841796875,-1.3092041015625
199,0.0865478515625,2.3162841796875,-1.9134521484375,-0.1007080078125
200,0.590087890625,1.7120361328125,-2.1148681640625,-1.409912109375
201,-2.5318603515625,-0.1007080078125,-2.618408203125,2.5177001953125
202,-2.3304443359375,1.611328125,-0.3021240234375,-0.7049560546875
203,1.0936279296875,-2.5177001953125,1.9134521484375,2.1148681640625
204,0.79150390625,-1.1077880859375,2.3162841796875,-1.007080078125
205,1.8992919921875,0.7049560546875,2.5177001953125,-2.5177001953125
206,-1.021240234375,-6.3446044921875,2.3162841796875,-1.1077880859375
207,1.0936279296875,-0.1007080078125,-2.215576171875,-2.7191162109375
208,-0.4169921875,-0.604248046875,-0.5035400390625,0.3021240234375
209,-0.81982421875,-2.1148681640625,2.01416015625,-0.201416015625
210,-0.3162841796875,-3.424072265625,2.3162841796875,-3.62548828125
211,-5.1502685546875,-2.7191162109375,-0.7049560546875,0.604248046875
212,-2.5318603515625,-2.7191162109375,-1.1077880859375,-0.3021240234375
213,1.2950439453125,-5.5389404296875,-2.5177001953125,0.7049560546875
214,-4.04248046875,-4.7332763671875,-1.3092041015625,-0.1007080078125
215,-2.7332763671875,-0.7049560546875,-3.1219482421875,-2.7191162109375
216,-2.9346923828125,-1.409912109375,-2.4169921875,2.7191162109375
217,0.992919921875,-1.812744140625,-3.22265625,-1.812744140625
218,-3.6396484375,0.9063720703125,2.3162841796875,1.007080078125
219,-0.3162841796875,4.9346923828125,-3.22265625,-0.1007080078125
220,1.0936279296875,1.1077880859375,-1.409912109375,1.409912109375
221,1.1943359375,-2.7191162109375,-4.632568359375,0.3021240234375
222,-1.7261962890625,-1.409912109375,-8.8623046875,1.9134521484375
223,-5.5531005859375,-0.5035400390625,-7.5531005859375,1.7120361328125
224,1.8992919921875,-3.7261962890625,-3.9276123046875,-0.1007080078125
225,1.8992919921875,0.604248046875,-6.04248046875,1.9134521484375
226,-3.841064453125,-0.3021240234375,-4.43115234375,-0.8056640625
227,-0.3162841796875,-3.826904296875,-5.9417724609375,-1.9134521484375
228,-0.7191162109375,-1.007080078125,-1.812744140625,2.81982421875
229,-1.5247802734375,1.5106201171875,-4.833984375,-0.8056640625
230,-0.4169921875,-2.81982421875,-8.5601806640625,-0.3021240234375
231,-0.3162841796875,1.9134521484375,-2.3162841796875,-2.9205322265625
232,-0.81982421875,0.604248046875,-4.632568359375,-2.4169921875
233,1.6978759765625,3.62548828125,-2.3162841796875,-0.3021240234375
234,-0.81982421875,1.007080078125,-3.826904296875,0.0
235,-3.7403564453125,-0.7049560546875,-4.9346923828125,-1.812744140625
236,1.4964599609375,2.7191162109375,-4.0283203125,1.9134521484375
237,-0.1148681640625,-0.7049560546875,-4.3304443359375,0.9063720703125
238,-0.7191162109375,-1.7120361328125,-3.7261962890625,1.3092041015625
239,-1.7261962890625,3.3233642578125,-1.1077880859375,2.1148681640625
240,1.2950439453125,-0.5035400390625,-2.1148681640625,-2.7191162109375
241,1.8992919921875,0.7049560546875,0.1007080078125,-0.9063720703125
242,1.6978759765625,1.5106201171875,1.20849609375,-2.9205322265625
243,2.0,-0.5035400390625,1.7120361328125,-2.7191162109375
244,-3.035400390625,-1.812744140625,-1.611328125,-2.9205322265625
245,2.5035400390625,-2.5177001953125,-1.9134521484375,-3.5247802734375
246,-2.833984375,-2.1148681640625,-3.22265625,-0.5035400390625
247,-1.424072265625,-1.812744140625,1.20849609375,-4.3304443359375
248,-1.424072265625,-5.1361083984375,-0.604248046875,-0.9063720703125
249,-2.3304443359375,-4.1290283203125,-2.9205322265625,0.7049560546875
250,0.0865478515625,-2.3162841796875,-2.1148681640625,-0.5035400390625
251,1.395751953125,-3.9276123046875,1.9134521484375,-4.1290283203125
252,-0.7191162109375,-5.841064453125,2.618408203125,-2.01416015625
253,-2.0283203125,-2.9205322265625,-0.9063720703125,-1.5106201171875
254,-2.7332763671875,-3.22265625,-4.632568359375,-0.7049560546875
255,-1.826904296875,-1.3092041015625,-3.021240234375,-0.3021240234375
256,-4.9488525390625,-4.229736328125,-2.81982421875,-0.40283203125
257,-3.1361083984375,-1.20849609375,-1.9134521484375,-0.9063720703125
258,-2.43115234375,0.1007080078125,-5.6396484375,1.7120361328125
259,0.0865478515625,-4.9346923828125,-3.1219482421875,5.23681640625
260,-2.1290283203125,-4.5318603515625,-2.618408203125,1.812744140625
261,-0.9205322265625,4.3304443359375,-0.3021240234375,-0.9063720703125
262,-1.7261962890625,-2.9205322265625,-0.7049560546875,0.604248046875
263,-1.22265625,-0.1007080078125,-4.1290283203125,-2.1148681640625
264,-2.3304443359375,-2.5177001953125,-3.021240234375,-1.007080078125
265,-1.5247802734375,1.3092041015625,-1.9134521484375,-0.7049560546875
266,-1.1219482421875,-0.1007080078125,-2.215576171875,2.1148681640625
267,-0.618408203125,0.201416015625,-4.3304443359375,2.01416015625
268,-0.4169921875,-0.7049560546875,-3.62548828125,0.201416015625
269,0.992919921875,1.409912109375,-5.9417724609375,-0.7049560546875
270,3.007080078125,-1.3092041015625,-0.1007080078125,-2.1148681640625
271,-0.9205322265625,-2.3162841796875,-3.7261962890625,-1.9134521484375
272,2.0,0.5035400390625,-5.6396484375,-0.7049560546875
273,-1.3233642578125,-2.3162841796875,-4.1290283203125,-1.409912109375
274,-3.035400390625,-0.9063720703125,-0.201416015625,-2.01416015625
275,-6.660888671875,0.604248046875,0.3021240234375,-0.7049560546875
276,-3.9417724609375,2.618408203125,-3.826904296875,-0.5035400390625
277,0.8922119140625,-0.201416015625,-4.3304443359375,-0.3021240234375
278,-0.3162841796875,4.1290283203125,0.0,0.3021240234375
279,-3.9417724609375,-0.7049560546875,-3.22265625,-6.04248046875
280,-3.9417724609375,-0.9063720703125,-4.0283203125,-1.812744140625
281,0.992919921875,-2.5177001953125,-1.611328125,-4.7332763671875
282,-1.424072265625,0.9063720703125,-4.1290283203125,0.3021240234375
283,-0.7191162109375,-0.7049560546875,-5.5389404296875,-3.3233642578125
284,-3.9417724609375,-0.1007080078125,-1.5106201171875,1.007080078125
285,-0.7191162109375,-2.1148681640625,-2.9205322265625,2.618408203125
286,0.0865478515625,-3.62548828125,-2.618408203125,0.7049560546875
287,-4.04248046875,-2.5177001953125,-0.8056640625,0.0
288,-2.3304443359375,2.215576171875,-2.618408203125,2.3162841796875
289,-5.3516845703125,-3.3233642578125,-5.1361083984375,0.5035400390625
290,-2.7332763671875,-6.04248046875,-3.1219482421875,-0.1007080078125
291,-3.3375244140625,-5.6396484375,2.215576171875,0.9063720703125
292,-1.1219482421875,-6.9488525390625,-3.7261962890625,-2.9205322265625
293,-2.1290283203125,-2.7191162109375,-3.1219482421875,-2.618408203125
294,-4.1431884765625,-4.632568359375,0.8056640625,-0.201416015625
295,-3.5389404296875,-2.9205322265625,-1.20849609375,5.035400390625
296,-5.3516845703125,-5.1361083984375,0.201416015625,1.409912109375
297,-1.62548828125,-3.5247802734375,-0.1007080078125,0.3021240234375
298,0.0865478515625,-5.5389404296875,-2.4169921875,2.5177001953125
299,-0.215576171875,-5.438232421875,-0.5035400390625,0.9063720703125
300,-4.4453125,-4.43115234375,1.409912109375,-0.201416015625
301,-0.3162841796875,-0.1007080078125,0.5035400390625,0.9063720703125
302,0.992919921875,-2.7191162109375,-1.9134521484375,0.8056640625
303,6.3304443359375,-0.9063720703125,-0.3021240234375,4.229736328125
304,-5.1502685546875,-3.22265625,0.1007080078125,-0.3021240234375
305,-1.1219482421875,-1.409912109375,-0.7049560546875,0.1007080078125
306,0.992919921875,-2.215576171875,-1.9134521484375,3.7261962890625
307,-2.5318603515625,-1.611328125,-3.5247802734375,0.0
308,-1.1219482421875,-0.5035400390625,-2.9205322265625,-0.1007080078125
309,-7.3658447265625,11.5814208984375,-5.7403564453125,2.618408203125
310,-1.22265625,3.3233642578125,-4.5318603515625,-1.3092041015625
311,0.0865478515625,0.7049560546875,-5.438232421875,3.22265625
312,2.1007080078125,2.5177001953125,-0.9063720703125,-0.201416015625
313,-2.632568359375,4.0283203125,-4.43115234375,-2.215576171875
314,-3.1361083984375,5.438232421875,-1.812744140625,1.3092041015625
315,0.8922119140625,1.7120361328125,-5.5389404296875,-1.9134521484375
316,-4.243896484375,-3.5247802734375,-3.5247802734375,-2.618408203125
317,-2.632568359375,6.3446044921875,-1.9134521484375,-1.409912109375
318,1.8992919921875,1.3092041015625,-3.7261962890625,-5.3375244140625
319,0.4893798828125,0.5035400390625,-1.9134521484375,-1.5106201171875
320,0.2879638671875,0.201416015625,1.9134521484375,1.409912109375
321,-0.01416015625,-3.9276123046875,0.5035400390625,-2.3162841796875
322,1.6978759765625,1.7120361328125,1.20849609375,-3.826904296875
323,0.4893798828125,-0.8056640625,-0.9063720703125,-4.7332763671875
324,5.7261962890625,-1.7120361328125,-2.1148681640625,-2.5177001953125
325,-1.5247802734375,-2.81982421875,-0.9063720703125,-3.7261962890625
326,1.6978759765625,-2.4169921875,2.5177001953125,-1.3092041015625
327,-1.62548828125,-1.9134521484375,3.3233642578125,-3.021240234375
328,-8.3729248046875,-1.3092041015625,-0.5035400390625,-3.9276123046875
329,-4.1431884765625,-4.1290283203125,0.0,-2.215576171875
330,-4.04248046875,-5.3375244140625,2.5177001953125,0.7049560546875
331,-1.1219482421875,-2.9205322265625,0.3021240234375,-1.20849609375
332,-2.7332763671875,-1.5106201171875,0.0,-2.3162841796875
333,-1.424072265625,0.604248046875,-1.9134521484375,-4.1290283203125
334,-0.1148681640625,-5.438232421875,-0.1007080078125,-3.9276123046875
335,-0.5177001953125,-3.3233642578125,-0.7049560546875,-3.22265625
336,-0.5177001953125,-5.1361083984375,1.7120361328125,-2.81982421875
337,2.1007080078125,-1.3092041015625,1.1077880859375,-1.611328125
338,-4.243896484375,-5.1361083984375,-0.8056640625,-0.1007080078125
339,-3.7403564453125,-3.9276123046875,0.0,0.5035400390625
340,1.798583984375,-1.812744140625,-3.7261962890625,0.1007080078125
341,1.0936279296875,-0.40283203125,0.1007080078125,-1.409912109375
342,-0.9205322265625,-1.3092041015625,-1.7120361328125,-0.8056640625
343,-0.5177001953125,-1.409912109375,-1.5106201171875,-2.1148681640625
344,-2.1290283203125,-1.5106201171875,-1.409912109375,1.7120361328125
345,-0.7191162109375,3.9276123046875,-5.841064453125,3.9276123046875
346,-3.5389404296875,-2.215576171875,-2.1148681640625,0.201416015625
347,-2.5318603515625,-1.1077880859375,-5.1361083984375,5.035400390625
348,-1.9276123046875,1.1077880859375,-3.1219482421875,1.812744140625
349,-2.3304443359375,2.9205322265625,-0.5035400390625,2.9205322265625
350,1.4964599609375,4.229736328125,-3.7261962890625,0.3021240234375
351,1.4964599609375,0.5035400390625,-2.4169921875,0.7049560546875
352,-4.04248046875,2.81982421875,-2.4169921875,0.3021240234375
353,0.187255859375,4.229736328125,-0.1007080078125,0.9063720703125
354,-3.9417724609375,3.22265625,-0.9063720703125,-1.812744140625
355,-3.035400390625,-0.604248046875,-1.611328125,-0.7049560546875
356,-2.1290283203125,-1.7120361328125,-2.1148681640625,3.5247802734375
357,-2.833984375,1.7120361328125,0.5035400390625,-0.1007080078125
358,-2.5318603515625,2.9205322265625,-2.215576171875,-3.9276123046875
359,-0.215576171875,0.3021240234375,-5.1361083984375,-0.1007080078125
360,-0.5177001953125,0.1007080078125,-4.0283203125,-2.01416015625
361,-0.5177001953125,-4.3304443359375,-1.611328125,2.3162841796875
362,-1.5247802734375,-1.5106201171875,-3.021240234375,0.1007080078125
363,-0.618408203125,-1.5106201171875,-1.007080078125,-2.3162841796875
364,-0.215576171875,-1.1077880859375,-1.611328125,-2.7191162109375
365,-1.62548828125,-2.7191162109375,1.812744140625,-0.1007080078125
366,-3.7403564453125,2.1148681640625,0.5035400390625,-5.3375244140625
367,-0.5177001953125,-3.9276123046875,-1.5106201171875,-4.1290283203125
368,0.6907958984375,-4.0283203125,-1.9134521484375,-6.84814453125
369,1.4964599609375,-3.1219482421875,1.7120361328125,-3.1219482421875
370,-0.215576171875,-4.9346923828125,0.9063720703125,-2.3162841796875
371,-1.7261962890625,-5.1361083984375,-0.1007080078125,-1.3092041015625
372,0.4893798828125,-4.1290283203125,-1.1077880859375,-1.007080078125
373,-1.424072265625,-5.438232421875,1.3092041015625,-0.1007080078125
374,-0.618408203125,-5.3375244140625,3.9276123046875,1.7120361328125
375,-0.1148681640625,-3.22265625,-1.20849609375,-0.5035400390625
376,-2.5318603515625,-5.7403564453125,-1.20849609375,-0.1007080078125
377,-0.7191162109375,-2.4169921875,-1.1077880859375,-1.5106201171875
378,0.79150390625,-3.1219482421875,-4.229736328125,4.0283203125
379,1.798583984375,1.20849609375,-6.3446044921875,2.5177001953125
380,0.79150390625,-4.229736328125,-2.9205322265625,1.1077880859375
381,0.4893798828125,-3.62548828125,4.1290283203125,2.01416015625
382,-0.81982421875,-1.007080078125,-1.007080078125,1.812744140625
383,-1.7261962890625,-1.1077880859375,-2.01416015625,-0.1007080078125
384,-1.1219482421875,-1.611328125,-1.409912109375,-0.1007080078125
385,0.2879638671875,0.1007080078125,-4.1290283203125,1.7120361328125
386,0.0865478515625,-2.3162841796875,-3.7261962890625,0.1007080078125
387,2.0,2.81982421875,-5.035400390625,1.9134521484375
388,3.20849609375,2.4169921875,-2.4169921875,-1.3092041015625
389,-3.1361083984375,-2.5177001953125,-1.007080078125,1.7120361328125
390,0.8922119140625,-0.5035400390625,-3.7261962890625,0.5035400390625
391,2.7049560546875,6.7474365234375,-2.9205322265625,-5.1361083984375
392,1.8992919921875,2.4169921875,-4.5318603515625,-4.3304443359375
393,2.1007080078125,1.9134521484375,-2.81982421875,0.5035400390625
394,0.8922119140625,0.8056640625,-0.7049560546875,-3.7261962890625
395,1.8992919921875,3.5247802734375,-5.1361083984375,-3.826904296875
396,-1.424072265625,1.9134521484375,-3.9276123046875,-1.1077880859375
397,-1.5247802734375,-0.604248046875,-2.7191162109375,-2.215576171875
398,-2.229736328125,-0.9063720703125,-2.215576171875,-2.618408203125
399,-3.5389404296875,-0.5035400390625,-7.1502685546875,-3.3233642578125
400,-4.7474365234375,1.7120361328125,-2.3162841796875,-0.9063720703125
401,-3.1361083984375,-1.3092041015625,-2.215576171875,-1.9134521484375
402,-3.9417724609375,0.5035400390625,0.3021240234375,-4.1290283203125
403,1.0936279296875,-2.5177001953125,-1.1077880859375,-3.5247802734375
404,-0.01416015625,0.7049560546875,-0.604248046875,-4.3304443359375
405,-0.4169921875,-1.5106201171875,3.3233642578125,-1.611328125
406,-1.5247802734375,-2.7191162109375,-0.5035400390625,-5.841064453125
407,-1.9276123046875,-0.1007080078125,0.1007080078125,-5.3375244140625
408,-3.3375244140625,-3.1219482421875,0.5035400390625,-2.215576171875
409,-2.3304443359375,-0.604248046875,-4.5318603515625,-3.1219482421875
410,-6.056640625,-0.8056640625,-0.40283203125,-2.215576171875
411,-1.021240234375,-1.409912109375,-4.3304443359375,-5.23681640625
412,-1.7261962890625,-4.1290283203125,0.7049560546875,-1.5106201171875
413,-2.7332763671875,-1.7120361328125,-0.40283203125,-3.9276123046875
414,-7.1644287109375,-2.215576171875,0.201416015625,-4.229736328125
415,-4.7474365234375,-7.1502685546875,-2.81982421875,-3.021240234375
416,0.4893798828125,-2.9205322265625,-4.7332763671875,-0.8056640625
417,-2.7332763671875,0.9063720703125,-0.3021240234375,1.611328125
418,5.22265625,-0.7049560546875,0.7049560546875,2.215576171875
419,0.8922119140625,-0.7049560546875,-2.1148681640625,1.812744140625
420,-1.3233642578125,-4.0283203125,-3.1219482421875,-0.1007080078125
421,1.8992919921875,-4.1290283203125,-4.3304443359375,1.3092041015625
422,-3.438232421875,-1.3092041015625,-0.3021240234375,6.04248046875
423,1.8992919921875,0.8056640625,-2.7191162109375,2.3162841796875
424,-2.833984375,-2.215576171875,-7.049560546875,-0.1007080078125
425,-2.229736328125,-2.9205322265625,-2.5177001953125,3.7261962890625
426,-3.3375244140625,-0.1007080078125,-5.23681640625,4.9346923828125
427,-3.9417724609375,-0.9063720703125,-3.22265625,3.9276123046875
428,-0.5177001953125,0.1007080078125,-5.035400390625,3.9276123046875
429,-1.424072265625,0.7049560546875,-8.258056640625,1.409912109375
430,-2.1290283203125,-2.5177001953125,-6.9488525390625,-1.20849609375
431,0.79150390625,-2.5177001953125,-2.9205322265625,1.812744140625
432,-0.215576171875,-1.812744140625,-2.1148681640625,3.3233642578125
433,-1.7261962890625,2.81982421875,-1.812744140625,3.9276123046875
434,-1.22265625,-2.9205322265625,-3.62548828125,3.3233642578125
435,-1.1219482421875,-0.5035400390625,-3.5247802734375,4.632568359375
436,1.395751953125,2.215576171875,-2.618408203125,0.1007080078125
437,-5.049560546875,-3.22265625,-3.5247802734375,-2.215576171875
438,-1.9276123046875,-0.1007080078125,-2.618408203125,-0.201416015625
439,-1.424072265625,-0.1007080078125,-2.9205322265625,0.8056640625
440,0.4893798828125,-2.7191162109375,-0.201416015625,-0.5035400390625
441,-0.9205322265625,4.9346923828125,-0.1007080078125,-3.22265625
442,1.59716796875,-0.5035400390625,-0.604248046875,-4.3304443359375
443,-1.9276123046875,-2.7191162109375,-1.9134521484375,-5.6396484375
444,-3.5389404296875,-1.1077880859375,-0.604248046875,-3.9276123046875
445,-0.215576171875,-2.618408203125,-3.22265625,-3.1219482421875
446,0.6907958984375,1.3092041015625,-2.7191162109375,-2.1148681640625
447,1.59716796875,-1.9134521484375,-2.4169921875,-5.5389404296875
448,-4.9488525390625,-2.9205322265625,-4.3304443359375,-6.1431884765625
449,-2.9346923828125,-3.5247802734375,-3.021240234375,-5.5389404296875
450,-0.7191162109375,-2.618408203125,-0.3021240234375,-6.1431884765625
451,0.187255859375,-0.604248046875,-0.9063720703125,-1.7120361328125
452,-0.7191162109375,-4.1290283203125,-0.1007080078125,-2.9205322265625
453,-0.1148681640625,-3.9276123046875,-1.7120361328125,-1.7120361328125
454,-0.01416015625,-1.1077880859375,-1.812744140625,-3.9276123046875
455,1.8992919921875,-1.9134521484375,-1.9134521484375,-5.438232421875
456,3.3092041015625,-2.1148681640625,-2.3162841796875,-2.5177001953125
457,0.187255859375,-2.5177001953125,-0.8056640625,-4.1290283203125
458,2.7049560546875,0.201416015625,-6.646728515625,1.3092041015625
459,-0.5177001953125,-3.62548828125,-5.1361083984375,0.604248046875
460,-0.4169921875,-3.826904296875,-4.3304443359375,1.1077880859375
461,0.6907958984375,-2.5177001953125,-4.229736328125,0.9063720703125
462,-0.5177001953125,-5.7403564453125,-1.812744140625,-0.1007080078125
463,0.4893798828125,-3.22265625,-4.7332763671875,0.9063720703125
464,-1.7261962890625,0.201416015625,-1.9134521484375,0.201416015625
465,-1.826904296875,-0.5035400390625,-7.855224609375,4.5318603515625
466,-0.81982421875,-0.1007080078125,-5.841064453125,2.1148681640625
467,-1.1219482421875,4.1290283203125,-4.632568359375,3.5247802734375
468,1.0936279296875,-1.5106201171875,-5.035400390625,3.9276123046875
469,-0.618408203125,3.22265625,-5.9417724609375,1.3092041015625
470,-0.5177001953125,1.007080078125,-10.272216796875,1.409912109375
471,1.0936279296875,-0.3021240234375,-5.841064453125,-1.3092041015625
472,0.0865478515625,-0.1007080078125,-2.5177001953125,-0.7049560546875
473,-2.1290283203125,3.9276123046875,-0.7049560546875,-2.81982421875
474,-0.9205322265625,3.5247802734375,-3.3233642578125,1.3092041015625
475,1.4964599609375,0.201416015625,-5.7403564453125,1.7120361328125
476,0.8922119140625,1.3092041015625,-1.1077880859375,-0.1007080078125
477,-1.7261962890625,-0.7049560546875,-2.4169921875,1.409912109375
478,-1.1219482421875,-0.1007080078125,-4.3304443359375,3.3233642578125
479,-0.7191162109375,8.1573486328125,-0.1007080078125,-3.424072265625
480,-4.04248046875,-0.3021240234375,-5.841064453125,-2.5177001953125
481,-1.5247802734375,-0.3021240234375,2.3162841796875,-1.9134521484375
482,-2.229736328125,0.40283203125,-2.7191162109375,-3.7261962890625
483,-2.1290283203125,-2.81982421875,-2.3162841796875,-5.3375244140625
484,-0.7191162109375,1.007080078125,-3.1219482421875,-5.9417724609375
485,-0.618408203125,-2.7191162109375,0.3021240234375,-1.5106201171875
486,0.590087890625,-1.20849609375,-2.215576171875,-6.1431884765625
487,-4.646728515625,-6.5460205078125,-4.7332763671875,-3.021240234375
488,-1.9276123046875,-0.9063720703125,-0.9063720703125,-1.7120361328125
489,-1.62548828125,-1.812744140625,-0.5035400390625,-1.20849609375
490,-1.5247802734375,-4.43115234375,-5.438232421875,-1.5106201171875
491,-3.5389404296875,-6.9488525390625,-2.81982421875,-2.7191162109375
492,-5.2509765625,-2.1148681640625,-1.007080078125,-3.5247802734375
493,-5.3516845703125,-5.035400390625,-3.5247802734375,-3.3233642578125
494,-5.1502685546875,-3.826904296875,0.0,-0.5035400390625
495,0.4893798828125,-3.021240234375,-3.424072265625,-1.5106201171875
496,1.798583984375,0.0,-5.9417724609375,-3.5247802734375
497,-0.81982421875,-1.409912109375,0.1007080078125,3.021240234375
498,-4.84814453125,-4.1290283203125,-4.229736328125,-0.1007080078125
499,-0.81982421875,-0.604248046875,-3.3233642578125,0.9063720703125
500,-0.1148681640625,-1.7120361328125,-2.3162841796875,2.5177001953125
501,-1.1219482421875,-3.3233642578125,-1.9134521484375,2.9205322265625
502,0.0865478515625,-4.9346923828125,-7.5531005859375,4.0283203125
503,-0.5177001953125,-1.409912109375,-4.632568359375,6.243896484375
504,0.6907958984375,-1.007080078125,-4.1290283203125,5.23681640625
505,1.8992919921875,-1.7120361328125,1.3092041015625,5.3375244140625
506,1.1943359375,-5.5389404296875,-6.04248046875,2.5177001953125
507,0.6907958984375,-1.1077880859375,-2.215576171875,0.1007080078125
508,-2.5318603515625,-2.01416015625,-3.1219482421875,3.424072265625
509,-0.4169921875,0.1007080078125,-3.5247802734375,3.62548828125
510,1.6978759765625,-1.20849609375,-4.5318603515625,5.3375244140625
511,-0.215576171875,1.9134521484375,-3.826904296875,5.5389404296875
512,-2.5318603515625,1.20849609375,-3.424072265625,1.1077880859375
513,-0.9205322265625,2.9205322265625,-2.7191162109375,-0.1007080078125
514,-0.3162841796875,2.9205322265625,-1.1077880859375,-1.007080078125
515,-1.5247802734375,-0.40283203125,1.409912109375,-0.40283203125
516,-3.23681640625,-1.409912109375,-0.604248046875,-0.3021240234375
517,-0.5177001953125,-5.5389404296875,-2.3162841796875,-0.9063720703125
518,1.8992919921875,-0.5035400390625,-2.7191162109375,-0.40283203125
519,-2.43115234375,-2.7191162109375,-0.40283203125,-0.1007080078125
520,-0.1148681640625,3.9276123046875,-1.9134521484375,-3.826904296875
521,-3.23681640625,-2.5177001953125,-1.5106201171875,-5.5389404296875
522,1.0936279296875,1.20849609375,-1.1077880859375,-6.4453125
523,-3.438232421875,-0.5035400390625,0.40283203125,-6.7474365234375
524,-4.243896484375,-1.20849609375,2.215576171875,-7.9559326171875
525,1.1943359375,2.81982421875,0.3021240234375,-7.5531005859375
526,1.1943359375,-1.5106201171875,-1.5106201171875,-7.3516845703125
527,1.1943359375,-2.4169921875,-2.7191162109375,-6.646728515625
528,1.1943359375,5.23681640625,-1.409912109375,-7.9559326171875
529,1.1943359375,-2.7191162109375,-2.81982421875,-6.3446044921875
530,1.1943359375,-1.812744140625,-1.20849609375,-6.3446044921875
531,1.1943359375,0.3021240234375,-2.5177001953125,-6.04248046875
532,1.1943359375,-0.1007080078125,1.812744140625,-3.1219482421875
533,1.1943359375,-4.0283203125,0.0,-2.618408203125
534,1.1943359375,0.0,-1.3092041015625,1.9134521484375
535,1.1943359375,-2.215576171875,-3.62548828125,0.1007080078125
536,1.1943359375,-1.9134521484375,-4.229736328125,1.611328125
537,1.1943359375,-2.1148681640625,-6.9488525390625,-3.62548828125
538,1.1943359375,-1.5106201171875,-2.5177001953125,1.1077880859375
539,1.1943359375,-3.62548828125,-2.7191162109375,-1.1077880859375
540,-2.7332763671875,-3.62548828125,-5.1361083984375,0.1007080078125
541,-3.7403564453125,-2.3162841796875,-2.3162841796875,0.0
542,-2.1290283203125,-4.43115234375,-1.007080078125,2.9205322265625
543,-0.215576171875,-0.8056640625,-1.3092041015625,2.5177001953125
544,-1.62548828125,-2.3162841796875,-2.9205322265625,3.22265625
545,-0.5177001953125,0.1007080078125,-6.243896484375,4.1290283203125
546,-1.9276123046875,0.1007080078125,-6.84814453125,1.611328125
547,2.8056640625,0.40283203125,0.40283203125,3.22265625
548,1.798583984375,-0.201416015625,-2.01416015625,0.7049560546875
549,4.3162841796875,-2.618408203125,-2.3162841796875,3.826904296875
550,1.8992919921875,-1.1077880859375,-0.1007080078125,0.5035400390625
551,1.2950439453125,1.1077880859375,-3.1219482421875,2.215576171875
552,-1.22265625,0.5035400390625,-1.1077880859375,0.1007080078125
553,1.4964599609375,-0.5035400390625,-0.5035400390625,2.3162841796875
554,3.007080078125,-0.1007080078125,-3.1219482421875,-1.3092041015625
555,-2.43115234375,0.40283203125,-3.7261962890625,-1.9134521484375
556,-1.9276123046875,3.7261962890625,-1.812744140625,-1.3092041015625
557,-3.9417724609375,0.604248046875,-3.5247802734375,-0.1007080078125
558,-0.618408203125,-0.9063720703125,-0.604248046875,-1.409912109375
559,-0.5177001953125,-0.3021240234375,-2.1148681640625,-1.1077880859375
560,0.0865478515625,-3.22265625,2.7191162109375,-3.826904296875
561,-3.6396484375,0.5035400390625,-2.7191162109375,-2.1148681640625
562,-4.4453125,1.3092041015625,-0.7049560546875,-4.1290283203125
563,1.395751953125,-1.9134521484375,-0.201416015625,-2.7191162109375
564,0.187255859375,-1.20849609375,1.007080078125,-5.438232421875
565,-9.1785888671875,-1.9134521484375,1.9134521484375,-1.1077880859375
566,-5.049560546875,-2.4169921875,-1.611328125,-1.7120361328125
567,-3.1361083984375,-2.7191162109375,2.9205322265625,-6.3446044921875
568,-1.9276123046875,-2.3162841796875,2.215576171875,-4.7332763671875
569,0.2879638671875,-3.1219482421875,1.812744140625,-2.1148681640625
570,-0.4169921875,-3.5247802734375,1.9134521484375,-2.9205322265625
571,1.8992919921875,-3.9276123046875,-2.215576171875,-4.43115234375
572,-0.3162841796875,-1.1077880859375,-1.007080078125,-5.5389404296875
573,1.6978759765625,-4.1290283203125,-0.1007080078125,-1.20849609375
574,-1.424072265625,-3.1219482421875,1.1077880859375,-0.1007080078125
575,-2.43115234375,-5.1361083984375,-1.9134521484375,1.1077880859375
576,-2.632568359375,-3.7261962890625,-1.812744140625,-1.812744140625
577,-2.632568359375,-1.5106201171875,-2.618408203125,-0.7049560546875
578,-1.424072265625,-1.3092041015625,-2.01416015625,3.5247802734375
579,-0.618408203125,-3.1219482421875,0.3021240234375,-0.7049560546875
580,-2.1290283203125,-1.007080078125,1.20849609375,-0.1007080078125
581,-0.215576171875,-3.1219482421875,-2.5177001953125,0.1007080078125
582,-2.833984375,-2.01416015625,-5.3375244140625,2.01416015625
583,-2.1290283203125,-4.1290283203125,-4.3304443359375,2.81982421875
584,-1.9276123046875,-3.1219482421875,-3.7261962890625,4.1290283203125
585,-1.826904296875,-3.1219482421875,-4.7332763671875,0.8056640625
586,-2.5318603515625,1.007080078125,-3.7261962890625,1.812744140625
587,-1.5247802734375,-1.3092041015625,-7.1502685546875,1.7120361328125
588,-0.4169921875,2.01416015625,-5.841064453125,4.9346923828125
589,-1.5247802734375,2.01416015625,-5.035400390625,-0.1007080078125
590,2.201416015625,3.3233642578125,-5.035400390625,-3.424072265625
591,-2.43115234375,10.07080078125,-3.9276123046875,2.9205322265625
592,1.0936279296875,1.007080078125,-3.7261962890625,2.9205322265625
593,-1.9276123046875,2.1148681640625,-4.7332763671875,-0.9063720703125
594,0.8922119140625,0.201416015625,2.9205322265625,-0.8056640625
595,0.187255859375,2.7191162109375,-5.9417724609375,-2.1148681640625
596,-1.1219482421875,-5.9417724609375,-5.5389404296875,-3.3233642578125
597,1.4964599609375,-1.3092041015625,-3.424072265625,-0.604248046875
598,-0.3162841796875,-2.4169921875,-2.7191162109375,-0.1007080078125
599,-1.1219482421875,1.3092041015625,-0.9063720703125,-3.826904296875
600,0.0865478515625,-0.201416015625,-3.5247802734375,-2.215576171875
601,0.0865478515625,-0.7049560546875,0.40283203125,-0.1007080078125
602,2.604248046875,0.5035400390625,0.8056640625,-1.1077880859375
603,0.187255859375,-2.1148681640625,1.3092041015625,-0.40283203125
604,-2.229736328125,-3.22265625,-1.007080078125,-0.9063720703125
605,-1.424072265625,-1.5106201171875,-4.1290283203125,1.7120361328125
606,-0.3162841796875,-2.1148681640625,-4.0283203125,-3.021240234375
607,-4.1431884765625,0.1007080078125,1.9134521484375,-1.5106201171875
608,0.2879638671875,1.1077880859375,2.1148681640625,-1.1077880859375
609,-3.23681640625,-1.20849609375,3.7261962890625,1.20849609375
610,-1.826904296875,-3.9276123046875,2.1148681640625,1.20849609375
611,-4.646728515625,-1.9134521484375,1.1077880859375,1.20849609375
612,-0.215576171875,-2.4169921875,3.22265625,1.20849609375
613,-0.1148681640625,-3.9276123046875,1.611328125,1.20849609375
614,0.187255859375,-4.1290283203125,0.0,1.20849609375
615,-3.9417724609375,-2.1148681640625,-0.7049560546875,1.20849609375
616,-1.1219482421875,-4.9346923828125,3.62548828125,1.20849609375
617,-0.1148681640625,-1.9134521484375,-0.40283203125,1.20849609375
618,-1.1219482421875,-5.6396484375,-0.604248046875,1.20849609375
619,0.388671875,-3.1219482421875,-0.201416015625,1.20849609375
620,-1.22265625,-3.9276123046875,1.812744140625,1.20849609375
621,-1.5247802734375,-3.1219482421875,3.9276123046875,1.20849609375
622,-1.9276123046875,2.9205322265625,-1.3092041015625,1.20849609375
623,-0.215576171875,-4.3304443359375,0.3021240234375,1.20849609375
624,-0.215576171875,-2.4169921875,-0.7049560546875,-2.3162841796875
625,-0.215576171875,0.3021240234375,-2.7191162109375,1.007080078125
626,-0.215576171875,0.201416015625,-0.40283203125,3.3233642578125
627,-0.215576171875,-0.604248046875,-2.5177001953125,4.229736328125
628,-0.215576171875,0.7049560546875,-2.7191162109375,1.409912109375
629,-0.215576171875,0.40283203125,-4.632568359375,0.40283203125
630,-0.215576171875,4.9346923828125,-2.9205322265625,2.4169921875
631,-0.215576171875,0.3021240234375,-1.007080078125,5.3375244140625
632,-0.215576171875,-0.3021240234375,-2.3162841796875,2.81982421875
633,-0.215576171875,3.5247802734375,-1.611328125,3.3233642578125
634,-0.215576171875,2.01416015625,-6.4453125,2.3162841796875
635,-0.215576171875,3.021240234375,0.40283203125,2.4169921875
636,-0.215576171875,1.812744140625,-5.7403564453125,-0.1007080078125
637,-0.215576171875,2.01416015625,-2.7191162109375,0.7049560546875
638,0.590087890625,-0.9063720703125,-0.7049560546875,-1.812744140625
639,2.9063720703125,3.021240234375,0.8056640625,-3.1219482421875
640,0.992919921875,-2.3162841796875,0.5035400390625,-1.7120361328125
641,-3.23681640625,-1.1077880859375,3.021240234375,-5.6396484375
642,-0.7191162109375,-1.7120361328125,-0.7049560546875,-4.229736328125
643,-3.23681640625,0.604248046875,-2.3162841796875,-3.3233642578125
644,0.992919921875,-0.9063720703125,1.007080078125,-4.9346923828125
645,-4.3446044921875,-1.812744140625,2.618408203125,-2.7191162109375
646,-1.5247802734375,-2.1148681640625,2.01416015625,-6.646728515625
647,2.8056640625,-1.611328125,3.9276123046875,-3.021240234375
648,0.8922119140625,-4.43115234375,-0.3021240234375,-4.833984375
649,-3.5389404296875,-4.833984375,2.3162841796875,-6.4453125
650,0.79150390625,-2.9205322265625,-0.1007080078125,-3.3233642578125
651,-1.7261962890625,-3.3233642578125,-1.007080078125,-5.7403564453125
652,-0.7191162109375,-4.7332763671875,3.62548828125,-7.1502685546875
653,1.59716796875,-6.9488525390625,2.1148681640625,-4.632568359375
654,2.1007080078125,-4.1290283203125,-0.40283203125,-7.855224609375
655,0.8922119140625,-5.9417724609375,-0.604248046875,-4.43115234375
656,-2.5318603515625,-2.81982421875,0.40283203125,-3.5247802734375
657,-0.3162841796875,-4.1290283203125,-1.7120361328125,-1.007080078125
658,0.8922119140625,-2.1148681640625,-5.035400390625,-0.3021240234375
659,3.3092041015625,-0.9063720703125,-0.9063720703125,-1.409912109375
660,-0.1148681640625,-2.7191162109375,-1.9134521484375,-2.1148681640625
661,-0.3162841796875,-5.6396484375,-1.007080078125,1.1077880859375
662,0.992919921875,-1.7120361328125,-4.43115234375,-0.5035400390625
663,0.187255859375,-3.1219482421875,-2.618408203125,-0.9063720703125
664,3.3092041015625,-3.1219482421875,-3.826904296875,1.007080078125
665,-0.5177001953125,-1.9134521484375,-4.229736328125,3.826904296875
666,-0.5177001953125,1.007080078125,0.1007080078125,1.3092041015625
667,-0.5177001953125,-2.9205322265625,-4.3304443359375,-0.7049560546875
668,-0.5177001953125,0.9063720703125,-1.1077880859375,1.3092041015625
669,-0.5177001953125,-1.5106201171875,-1.5106201171875,2.1148681640625
670,-0.5177001953125,0.5035400390625,-3.7261962890625,2.7191162109375
671,-0.5177001953125,1.5106201171875,-6.3446044921875,-2.1148681640625
672,-0.5177001953125,-0.1007080078125,-4.833984375,-4.3304443359375
673,-0.5177001953125,-1.611328125,-5.438232421875,-0.40283203125
674,-0.5177001953125,0.1007080078125,-2.7191162109375,3.62548828125
675,-0.5177001953125,2.215576171875,-2.215576171875,0.8056640625
676,-0.5177001953125,1.1077880859375,-0.3021240234375,4.0283203125
677,-0.5177001953125,2.3162841796875,-3.021240234375,4.0283203125
678,-0.5177001953125,5.438232421875,-4.1290283203125,2.5177001953125
679,-0.5177001953125,2.1148681640625,1.007080078125,2.4169921875
680,-3.6396484375,0.5035400390625,-0.201416015625,1.7120361328125
681,-0.7191162109375,0.40283203125,0.40283203125,-4.1290283203125
682,1.4964599609375,-2.9205322265625,0.8056640625,2.5177001953125
683,0.590087890625,-5.438232421875,0.0,2.5177001953125
684,-1.7261962890625,2.81982421875,2.3162841796875,-1.7120361328125
685,-3.841064453125,-0.5035400390625,4.9346923828125,0.5035400390625
686,-3.23681640625,-4.229736328125,-0.7049560546875,-0.201416015625
687,-1.021240234375,-2.7191162109375,2.9205322265625,-4.43115234375
688,-6.3587646484375,-5.035400390625,-2.5177001953125,-3.5247802734375
689,0.590087890625,-1.5106201171875,0.201416015625,-4.3304443359375
690,-0.9205322265625,-4.229736328125,1.1077880859375,-2.618408203125
691,-2.5318603515625,-5.438232421875,-0.7049560546875,-1.9134521484375
692,-3.7403564453125,2.1148681640625,-1.20849609375,-2.5177001953125
693,-3.438232421875,-2.3162841796875,-0.201416015625,-0.9063720703125
694,-2.632568359375,-0.3021240234375,-0.5035400390625,-1.5106201171875
695,1.4964599609375,-2.9205322265625,0.9063720703125,-0.9063720703125
696,-2.9346923828125,-1.1077880859375,0.5035400390625,-3.22265625
697,-1.22265625,0.9063720703125,-1.9134521484375,-2.81982421875
698,-4.04248046875,-0.7049560546875,-1.611328125,-2.618408203125
699,0.6907958984375,-0.9063720703125,-2.5177001953125,-3.826904296875
700,-0.5177001953125,-3.9276123046875,-2.215576171875,-0.201416015625
701,0.8922119140625,-0.201416015625,-4.3304443359375,-1.3092041015625
702,-2.833984375,3.22265625,-2.5177001953125,-2.3162841796875
703,-2.1290283203125,-3.1219482421875,-3.1219482421875,-0.3021240234375
704,0.6907958984375,-3.9276123046875,-5.1361083984375,0.8056640625
705,2.201416015625,-0.1007080078125,-4.632568359375,-0.1007080078125
706,2.40283203125,-2.4169921875,-2.3162841796875,-1.5106201171875
707,1.6978759765625,-0.5035400390625,-3.5247802734375,0.8056640625
708,1.6978759765625,3.62548828125,-1.3092041015625,0.5035400390625
709,1.6978759765625,-0.1007080078125,-0.40283203125,-1.3092041015625
710,1.6978759765625,-0.9063720703125,-4.5318603515625,-2.1148681640625
711,1.6978759765625,0.5035400390625,-4.229736328125,-1.9134521484375
712,1.6978759765625,0.8056640625,-2.215576171875,-1.1077880859375
713,1.6978759765625,2.1148681640625,-2.1148681640625,0.5035400390625
714,1.6978759765625,-0.1007080078125,-0.3021240234375,0.7049560546875
715,1.6978759765625,0.7049560546875,-1.007080078125,-0.3021240234375
716,1.6978759765625,-4.7332763671875,-0.9063720703125,-1.409912109375
717,1.6978759765625,1.611328125,-0.9063720703125,-0.7049560546875
718,1.6978759765625,-3.22265625,0.3021240234375,-0.201416015625
719,1.6978759765625,3.22265625,-0.9063720703125,-0.5035400390625
720,1.6978759765625,2.215576171875,0.3021240234375,1.9134521484375
721,1.6978759765625,1.1077880859375,1.812744140625,-0.7049560546875
722,-1.1219482421875,-0.201416015625,1.007080078125,-2.3162841796875
723,-0.215576171875,1.812744140625,2.618408203125,1.007080078125
724,1.8992919921875,-1.007080078125,-0.1007080078125,-0.201416015625
725,1.2950439453125,-2.618408203125,-0.40283203125,-0.40283203125
726,-2.3304443359375,-2.5177001953125,-0.1007080078125,-2.5177001953125
727,-1.5247802734375,-2.215576171875,1.1077880859375,-2.9205322265625
728,2.1007080078125,-1.7120361328125,2.1148681640625,-3.021240234375
729,-0.7191162109375,-1.611328125,3.424072265625,0.40283203125
730,-2.9346923828125,-2.3162841796875,2.5177001953125,-3.021240234375
731,-1.021240234375,-5.3375244140625,-1.1077880859375,-0.7049560546875
732,-0.9205322265625,-6.3446044921875,0.1007080078125,0.5035400390625
733,-4.1431884765625,-5.6396484375,0.604248046875,-1.007080078125
734,-1.5247802734375,-4.5318603515625,-0.9063720703125,-0.1007080078125
735,0.4893798828125,-6.04248046875,-0.9063720703125,0.604248046875
736,-0.3162841796875,-6.5460205078125,-0.1007080078125,-2.3162841796875
737,1.8992919921875,-2.215576171875,-1.007080078125,0.1007080078125
738,-1.021240234375,-2.81982421875,2.5177001953125,3.22265625
739,-0.7191162109375,-0.8056640625,0.604248046875,4.632568359375
740,-0.5177001953125,2.3162841796875,-4.833984375,4.43115234375
741,0.4893798828125,4.9346923828125,-5.1361083984375,2.215576171875
742,-2.3304443359375,-1.7120361328125,-1.5106201171875,3.3233642578125
743,1.8992919921875,-0.604248046875,-5.7403564453125,1.7120361328125
744,-2.3304443359375,3.1219482421875,-5.1361083984375,5.438232421875
745,-0.618408203125,-2.1148681640625,-6.1431884765625,2.5177001953125
746,0.8922119140625,5.7403564453125,-6.84814453125,5.23681640625
747,0.187255859375,-0.3021240234375,-5.7403564453125,2.01416015625
748,-1.1219482421875,3.021240234375,-6.84814453125,1.611328125
749,-0.5177001953125,-2.1148681640625,-4.833984375,0.7049560546875
750,0.187255859375,-1.5106201171875,-2.4169921875,4.9346923828125
751,-0.5177001953125,1.5106201171875,-2.3162841796875,4.7332763671875
752,1.0936279296875,0.5035400390625,-4.1290283203125,5.5389404296875
753,-0.7191162109375,-0.9063720703125,-3.424072265625,1.409912109375
754,-0.3162841796875,0.3021240234375,-2.4169921875,0.9063720703125
755,-3.9417724609375,-1.5106201171875,-1.5106201171875,-0.7049560546875
756,-2.9346923828125,-0.1007080078125,-2.4169921875,-1.7120361328125
757,0.2879638671875,1.007080078125,-2.4169921875,-1.3092041015625
758,1.1943359375,2.1148681640625,-4.1290283203125,-1.3092041015625
759,0.0865478515625,-4.3304443359375,-2.7191162109375,-1.1077880859375
760,2.0,-1.9134521484375,-0.5035400390625,-4.1290283203125
761,-3.23681640625,0.9063720703125,-0.9063720703125,-3.5247802734375
762,-1.826904296875,-0.1007080078125,3.9276123046875,-5.7403564453125
763,-1.5247802734375,-1.20849609375,-3.3233642578125,-5.9417724609375
764,-4.04248046875,-0.9063720703125,-0.8056640625,-5.7403564453125
765,-2.7332763671875,-3.7261962890625,0.3021240234375,-5.841064453125
766,1.59716796875,3.5247802734375,-0.9063720703125,-6.243896484375
767,0.187255859375,2.3162841796875,2.01416015625,-3.7261962890625
768,-1.22265625,-0.9063720703125,-3.1219482421875,-4.1290283203125
769,2.1007080078125,-4.3304443359375,0.1007080078125,-1.5106201171875
770,1.798583984375,-0.7049560546875,2.7191162109375,-3.7261962890625
771,0.79150390625,-0.9063720703125,1.20849609375,-1.812744140625
772,-0.5177001953125,0.7049560546875,-0.9063720703125,-3.1219482421875
773,-0.618408203125,-3.5247802734375,0.5035400390625,-5.9417724609375
774,-0.4169921875,-3.22265625,-1.20849609375,-2.4169921875
775,-1.021240234375,-5.1361083984375,-1.007080078125,-2.1148681640625
776,-3.9417724609375,-4.5318603515625,-3.021240234375,-2.81982421875
777,0.590087890625,-5.438232421875,-3.826904296875,-5.438232421875
778,1.6978759765625,-3.62548828125,-3.62548828125,-4.632568359375
779,-1.5247802734375,-2.81982421875,-1.611328125,-5.035400390625
780,0.8922119140625,0.1007080078125,-4.43115234375,-2.3162841796875
781,1.4964599609375,-2.5177001953125,-4.5318603515625,-2.7191162109375
782,-2.632568359375,-4.3304443359375,-5.7403564453125,2.215576171875
783,-3.438232421875,-0.3021240234375,-4.1290283203125,2.9205322265625
784,5.826904296875,-4.5318603515625,-4.229736328125,0.9063720703125
785,0.0865478515625,2.01416015625,-6.3446044921875,-1.9134521484375
786,1.395751953125,2.5177001953125,-4.833984375,-0.1007080078125
787,-0.7191162109375,-1.5106201171875,-5.7403564453125,1.20849609375
788,-0.5177001953125,-1.1077880859375,-4.3304443359375,1.3092041015625
789,-2.229736328125,1.611328125,-0.201416015625,2.3162841796875
790,-2.632568359375,0.3021240234375,-0.3021240234375,0.201416015625
791,-0.5177001953125,-0.1007080078125,-1.812744140625,-1.9134521484375
792,1.4964599609375,5.23681640625,-4.1290283203125,-3.9276123046875
793,-0.618408203125,1.3092041015625,-7.65380859375,0.3021240234375
794,-0.215576171875,-0.604248046875,-1.812744140625,0.40283203125
795,-3.9417724609375,1.007080078125,-2.01416015625,1.007080078125
796,-3.5389404296875,0.5035400390625,-3.826904296875,3.1219482421875
797,0.4893798828125,0.5035400390625,1.812744140625,0.9063720703125
798,0.8922119140625,1.007080078125,-1.409912109375,1.409912109375
799,-1.5247802734375,3.7261962890625,-5.3375244140625,2.4169921875
800,0.6907958984375,-1.1077880859375,-1.20849609375,2.1148681640625
801,2.9063720703125,-1.1077880859375,1.409912109375,0.1007080078125
802,-3.5389404296875,2.215576171875,-2.215576171875,0.5035400390625
803,0.0865478515625,0.1007080078125,-1.1077880859375,1.1077880859375
804,-1.424072265625,-0.9063720703125,1.812744140625,1.007080078125
805,5.9276123046875,-1.9134521484375,-0.9063720703125,2.3162841796875
806,5.9276123046875,-1.5106201171875,-1.7120361328125,-2.5177001953125
807,5.9276123046875,-1.611328125,-4.5318603515625,1.5106201171875
808,5.9276123046875,0.3021240234375,-1.5106201171875,0.9063720703125
809,5.9276123046875,-4.1290283203125,-1.1077880859375,1.1077880859375
810,5.9276123046875,-3.021240234375,-0.9063720703125,-3.3233642578125
811,5.9276123046875,-2.01416015625,-2.1148681640625,2.3162841796875
812,5.9276123046875,-3.5247802734375,-2.7191162109375,-1.1077880859375
813,5.9276123046875,-1.007080078125,1.7120361328125,-1.20849609375
814,5.9276123046875,-5.7403564453125,-0.1007080078125,0.604248046875
815,5.9276123046875,-5.9417724609375,-2.81982421875,-2.9205322265625
816,5.9276123046875,-3.021240234375,-3.424072265625,-0.1007080078125
817,5.9276123046875,-4.9346923828125,-6.4453125,3.826904296875
818,5.9276123046875,0.7049560546875,-0.5035400390625,-1.9134521484375
819,5.9276123046875,-0.604248046875,-3.021240234375,-0.1007080078125
820,-0.4169921875,-0.604248046875,-3.021240234375,2.3162841796875
821,-1.62548828125,-0.604248046875,-3.021240234375,1.5106201171875
822,-1.9276123046875,-0.604248046875,-3.021240234375,0.604248046875
823,-5.9559326171875,-0.604248046875,-3.021240234375,0.9063720703125
824,2.5035400390625,-0.604248046875,-3.021240234375,-0.201416015625
825,-1.3233642578125,-0.604248046875,-3.021240234375,0.3021240234375
826,-4.04248046875,-0.604248046875,-3.021240234375,4.3304443359375
827,-3.035400390625,-0.604248046875,-3.021240234375,0.3021240234375
828,0.0865478515625,-0.604248046875,-3.021240234375,-2.5177001953125
829,-0.3162841796875,-0.604248046875,-3.021240234375,0.1007080078125
830,-2.229736328125,-0.604248046875,-3.021240234375,0.8056640625
831,-1.22265625,-0.604248046875,-3.021240234375,0.0
832,-1.826904296875,-0.604248046875,-3.021240234375,-2.81982421875
833,1.1943359375,-0.604248046875,-3.021240234375,-2.3162841796875
834,-2.7332763671875,-0.1007080078125,0.604248046875,-0.7049560546875
835,-0.81982421875,0.9063720703125,-0.40283203125,0.5035400390625
836,-0.215576171875,3.9276123046875,-5.1361083984375,1.3092041015625
837,-0.9205322265625,-0.1007080078125,-5.1361083984375,-6.9488525390625
838,-0.4169921875,0.1007080078125,-4.5318603515625,-1.1077880859375
839,-2.1290283203125,-1.20849609375,0.7049560546875,-2.01416015625
840,0.8922119140625,-1.1077880859375,-0.3021240234375,-2.215576171875
841,-2.833984375,0.201416015625,-1.9134521484375,-4.3304443359375
842,-5.452392578125,-1.5106201171875,-1.20849609375,-1.3092041015625
843,-3.3375244140625,-0.5035400390625,1.7120361328125,-1.5106201171875
844,-3.035400390625,-3.22265625,2.5177001953125,-4.3304443359375
845,-1.5247802734375,-4.3304443359375,-0.1007080078125,-2.5177001953125
846,2.1007080078125,-4.43115234375,1.7120361328125,-4.229736328125
847,-0.9205322265625,-2.01416015625,0.8056640625,-3.7261962890625
848,-0.9205322265625,-2.4169921875,1.7120361328125,-1.7120361328125
849,-0.9205322265625,-6.9488525390625,-1.1077880859375,-4.0283203125
850,-0.9205322265625,-2.5177001953125,-3.826904296875,-4.1290283203125
851,-0.9205322265625,-1.9134521484375,-1.7120361328125,-2.5177001953125
852,-0.9205322265625,-1.1077880859375,-1.812744140625,-3.826904296875
853,-0.9205322265625,5.7403564453125,-5.5389404296875,-4.1290283203125
854,-0.9205322265625,-1.9134521484375,-6.3446044921875,-0.604248046875
855,-0.9205322265625,-3.7261962890625,-1.3092041015625,-2.1148681640625
856,-0.9205322265625,-8.9630126953125,-0.201416015625,-1.007080078125
857,-0.9205322265625,-7.3516845703125,-1.5106201171875,-2.215576171875
858,-0.9205322265625,-9.1644287109375,-3.021240234375,-1.812744140625
859,-0.9205322265625,-3.424072265625,-3.62548828125,-1.409912109375
860,-0.9205322265625,-0.1007080078125,0.7049560546875,1.007080078125
861,-0.9205322265625,-1.9134521484375,-4.7332763671875,2.5177001953125
862,-0.9205322265625,-2.7191162109375,-3.5247802734375,2.5177001953125
863,-1.3233642578125,-0.9063720703125,-4.3304443359375,2.5177001953125
864,-1.424072265625,-2.618408203125,-5.438232421875,2.5177001953125
865,1.798583984375,1.7120361328125,-0.9063720703125,2.5177001953125
866,-1.424072265625,1.20849609375,-6.7474365234375,2.5177001953125
867,-3.035400390625,1.7120361328125,-3.3233642578125,2.5177001953125
868,1.395751953125,-2.1148681640625,-1.812744140625,2.5177001953125
869,-1.7261962890625,-0.9063720703125,-5.035400390625,2.5177001953125
870,1.6978759765625,3.424072265625,-1.7120361328125,2.5177001953125
871,0.8922119140625,-0.9063720703125,-3.021240234375,2.5177001953125
872,0.0865478515625,-2.4169921875,-4.833984375,2.5177001953125
873,-0.9205322265625,-4.5318603515625,-4.632568359375,2.5177001953125
874,0.6907958984375,-0.3021240234375,-2.01416015625,2.5177001953125
875,-0.01416015625,1.5106201171875,-4.1290283203125,2.5177001953125
876,-0.215576171875,-2.9205322265625,-2.215576171875,-3.62548828125
877,-0.618408203125,5.7403564453125,-0.1007080078125,0.201416015625
878,2.1007080078125,0.9063720703125,-1.007080078125,4.43115234375
879,1.0936279296875,2.4169921875,-0.7049560546875,0.201416015625
880,-2.9346923828125,-2.01416015625,-3.22265625,-2.01416015625
881,0.2879638671875,1.007080078125,-0.1007080078125,-4.7332763671875
882,-1.22265625,-1.9134521484375,-2.7191162109375,-3.021240234375
883,-2.3304443359375,-1.007080078125,0.604248046875,-4.3304443359375
884,-0.215576171875,0.201416015625,-3.7261962890625,-5.841064453125
885,0.388671875,-0.1007080078125,-4.43115234375,-2.7191162109375
886,-0.5177001953125,-4.1290283203125,-2.215576171875,-0.3021240234375
887,-1.9276123046875,-0.604248046875,-3.021240234375,0.40283203125
888,-1.5247802734375,-3.22265625,-2.5177001953125,-2.4169921875
889,-4.3446044921875,-2.7191162109375,-0.5035400390625,-0.1007080078125
890,-1.9276123046875,-3.424072265625,0.5035400390625,-2.3162841796875
891,-0.7191162109375,-4.3304443359375,-1.7120361328125,-2.81982421875
892,-1.1219482421875,0.5035400390625,2.01416015625,-0.201416015625
893,-3.841064453125,1.1077880859375,-2.3162841796875,-0.1007080078125
894,-2.5318603515625,-2.3162841796875,-0.9063720703125,-2.5177001953125
895,-7.5672607421875,-4.632568359375,-2.618408203125,-0.3021240234375
896,-0.9205322265625,-4.43115234375,-2.1148681640625,2.5177001953125
897,3.611328125,-3.9276123046875,-6.9488525390625,-0.7049560546875
898,-0.4169921875,-4.43115234375,-2.81982421875,-0.8056640625
899,-1.1219482421875,-0.3021240234375,-2.4169921875,2.618408203125
900,1.395751953125,-2.7191162109375,-0.1007080078125,0.7049560546875
901,-3.9417724609375,-2.9205322265625,-4.7332763671875,-0.7049560546875
902,-0.618408203125,-2.215576171875,-3.62548828125,0.3021240234375
903,-1.826904296875,-1.409912109375,-3.424072265625,1.812744140625
904,-3.3375244140625,0.9063720703125,-6.243896484375,1.812744140625
905,-2.3304443359375,-2.215576171875,-4.43115234375,1.812744140625
906,-0.3162841796875,-2.5177001953125,-4.7332763671875,1.812744140625
907,0.388671875,0.201416015625,-3.7261962890625,1.812744140625
908,-3.1361083984375,1.5106201171875,-5.5389404296875,1.812744140625
909,-0.618408203125,-0.604248046875,-4.632568359375,1.812744140625
910,1.8992919921875,3.9276123046875,-5.3375244140625,1.812744140625
911,-2.1290283203125,1.20849609375,-4.0283203125,1.812744140625
912,-3.841064453125,1.7120361328125,-0.5035400390625,1.812744140625
913,-1.3233642578125,-1.1077880859375,-0.3021240234375,1.812744140625
914,-2.1290283203125,5.1361083984375,-2.4169921875,1.812744140625
915,1.6978759765625,-1.9134521484375,-2.618408203125,1.812744140625
916,0.6907958984375,0.7049560546875,-1.9134521484375,1.812744140625
917,1.4964599609375,3.424072265625,-1.5106201171875,1.812744140625
918,1.2950439453125,-0.5035400390625,1.20849609375,-0.5035400390625
919,-2.43115234375,-0.201416015625,-1.1077880859375,1.007080078125
920,1.0936279296875,6.3446044921875,-7.3516845703125,1.7120361328125
921,-0.7191162109375,-1.1077880859375,-2.81982421875,-3.1219482421875
922,0.4893798828125,3.22265625,-5.7403564453125,-0.604248046875
923,-2.7332763671875,-1.1077880859375,2.5177001953125,2.4169921875
924,-0.7191162109375,-1.7120361328125,0.3021240234375,1.9134521484375
925,-3.3375244140625,0.9063720703125,-0.1007080078125,-0.7049560546875
926,0.388671875,-0.9063720703125,2.5177001953125,1.3092041015625
927,-1.7261962890625,-3.5247802734375,-2.9205322265625,-0.5035400390625
928,-3.035400390625,-2.5177001953125,-0.201416015625,-0.201416015625
929,-1.1219482421875,-2.5177001953125,-2.1148681640625,0.5035400390625
930,1.1943359375,-6.04248046875,-1.3092041015625,-2.215576171875
931,-3.7403564453125,-5.7403564453125,-0.8056640625,1.1077880859375
932,1.8992919921875,-2.7191162109375,-1.20849609375,-7.2509765625
933,-3.1361083984375,-3.021240234375,0.201416015625,-2.1148681640625
934,-2.9346923828125,-2.81982421875,1.1077880859375,-0.1007080078125
935,-0.81982421875,-3.1219482421875,-0.8056640625,-1.1077880859375
936,4.01416015625,-1.409912109375,-2.81982421875,-6.646728515625
937,-2.632568359375,-5.035400390625,-2.618408203125,-0.9063720703125
938,-0.01416015625,-6.84814453125,-0.3021240234375,-0.5035400390625
939,1.8992919921875,-5.5389404296875,-3.7261962890625,-4.1290283203125
940,0.187255859375,-3.9276123046875,-2.4169921875,-1.3092041015625
941,1.2950439453125,-3.9276123046875,-0.40283203125,-1.7120361328125
942,0.2879638671875,-3.1219482421875,-3.5247802734375,3.22265625
943,-0.5177001953125,-5.23681640625,-0.9063720703125,0.604248046875
944,0.187255859375,-1.611328125,-2.3162841796875,-3.7261962890625
945,-0.215576171875,-2.7191162109375,-1.1077880859375,-4.1290283203125
946,-1.424072265625,2.4169921875,-2.618408203125,-0.1007080078125
947,-2.632568359375,-0.3021240234375,-3.22265625,0.0
948,-0.81982421875,2.9205322265625,-7.1502685546875,0.3021240234375
949,2.5035400390625,0.3021240234375,-2.5177001953125,1.611328125
950,-1.3233642578125,2.1148681640625,-6.3446044921875,-2.5177001953125
951,-0.1148681640625,-0.40283203125,-2.7191162109375,-1.5106201171875
952,1.8992919921875,-1.3092041015625,-1.9134521484375,-2.01416015625
953,-0.5177001953125,-1.1077880859375,-3.5247802734375,-1.3092041015625
954,1.798583984375,1.9134521484375,-2.7191162109375,-1.5106201171875
955,2.0,2.1148681640625,-1.1077880859375,-2.81982421875
956,-1.9276123046875,3.62548828125,-2.5177001953125,-0.5035400390625
957,1.0936279296875,1.20849609375,-5.035400390625,0.201416015625
958,-0.4169921875,-0.3021240234375,-2.01416015625,-0.1007080078125
959,0.0865478515625,0.5035400390625,-2.3162841796875,-0.9063720703125
960,1.1943359375,-2.4169921875,0.8056640625,-2.7191162109375
961,-2.43115234375,-0.9063720703125,-0.3021240234375,-0.40283203125
962,-2.1290283203125,-0.1007080078125,0.604248046875,-0.5035400390625
963,1.6978759765625,1.3092041015625,2.1148681640625,-3.1219482421875
964,1.4964599609375,-0.7049560546875,2.3162841796875,-2.5177001953125
965,-1.1219482421875,2.01416015625,1.1077880859375,-0.9063720703125
966,-0.7191162109375,0.604248046875,3.3233642578125,-3.826904296875
967,-1.7261962890625,-0.3021240234375,-2.618408203125,-1.9134521484375
968,-3.1361083984375,-1.20849609375,-0.3021240234375,-0.9063720703125
969,2.0,-2.5177001953125,0.5035400390625,-2.3162841796875
970,-0.4169921875,-5.7403564453125,-3.1219482421875,-2.5177001953125
971,-2.632568359375,0.604248046875,-0.7049560546875,-2.01416015625
972,-4.3446044921875,-3.9276123046875,-1.3092041015625,1.20849609375
973,0.187255859375,-3.1219482421875,1.611328125,2.1148681640625
974,0.0865478515625,-6.04248046875,-0.40283203125,-3.9276123046875
975,-5.5531005859375,2.9205322265625,0.3021240234375,-3.021240234375
976,-0.3162841796875,-3.5247802734375,-0.201416015625,-2.7191162109375
977,1.8992919921875,-2.3162841796875,-0.604248046875,2.7191162109375
978,-0.1148681640625,-2.01416015625,-3.22265625,1.409912109375
979,-0.7191162109375,-0.3021240234375,-0.5035400390625,-1.5106201171875
980,-1.021240234375,-1.007080078125,-2.9205322265625,1.5106201171875
981,-3.9417724609375,2.7191162109375,-2.81982421875,2.3162841796875
982,2.0,1.3092041015625,-5.9417724609375,-0.9063720703125
983,-3.5389404296875,-1.5106201171875,-3.7261962890625,1.007080078125
984,-0.3162841796875,-4.43115234375,1.007080078125,5.438232421875
985,-0.618408203125,2.01416015625,-3.826904296875,3.424072265625
986,-0.5177001953125,-4.7332763671875,-4.7332763671875,4.3304443359375
987,-0.7191162109375,-3.021240234375,-4.7332763671875,3.826904296875
988,-0.5177001953125,-2.3162841796875,-3.021240234375,5.3375244140625
989,1.8992919921875,-0.1007080078125,-4.1290283203125,6.7474365234375
990,-4.646728515625,-1.611328125,-1.812744140625,6.4453125
991,-1.22265625,-4.1290283203125,-1.9134521484375,1.3092041015625
992,-0.01416015625,2.1148681640625,-5.7403564453125,2.9205322265625
993,0.4893798828125,2.4169921875,-3.1219482421875,0.201416015625
994,-1.1219482421875,-0.604248046875,-4.5318603515625,2.215576171875
995,8.04248046875,-2.7191162109375,-2.7191162109375,-2.3162841796875
996,-1.3233642578125,0.1007080078125,-2.7191162109375,0.5035400390625
997,-1.5247802734375,0.7049560546875,-0.604248046875,0.7049560546875
998,-2.5318603515625,-0.9063720703125,-0.604248046875,-0.9063720703125
999,1.8992919921875,-0.1007080078125,-1.7120361328125,1.611328125
1000,1.2950439453125,-0.1007080078125,-0.5035400390625,-2.1148681640625
1001,0.0865478515625,0.9063720703125,-2.9205322265625,-0.201416015625
1002,-1.7261962890625,-2.618408203125,-3.826904296875,-3.1219482421875
1003,-1.1219482421875,-0.1007080078125,-2.3162841796875,-2.81982421875
1004,-0.4169921875,-5.5389404296875,-0.604248046875,-4.632568359375
1005,-0.5177001953125,-0.3021240234375,0.201416015625,-5.3375244140625
1006,-3.7403564453125,-2.3162841796875,-0.1007080078125,-5.9417724609375
1007,0.388671875,-1.611328125,1.9134521484375,-2.9205322265625
1008,-0.215576171875,-2.81982421875,3.7261962890625,-4.1290283203125
1009,-0.618408203125,-2.1148681640625,-0.7049560546875,-6.7474365234375
1010,-2.632568359375,-1.5106201171875,-0.1007080078125,-3.22265625
1011,-2.229736328125,-5.23681640625,-0.9063720703125,-3.62548828125
1012,-1.22265625,-3.62548828125,-1.1077880859375,-4.5318603515625
1013,0.79150390625,-6.4453125,0.5035400390625,-4.229736328125
1014,3.9134521484375,0.201416015625,-0.1007080078125,-4.229736328125
1015,0.187255859375,-0.3021240234375,-1.5106201171875,-7.5531005859375
1016,-1.22265625,-3.9276123046875,-1.5106201171875,-2.9205322265625
1017,-4.04248046875,-3.5247802734375,-1.5106201171875,-4.229736328125
1018,0.8922119140625,-0.3021240234375,-1.5106201171875,0.3021240234375
1019,2.5035400390625,-0.40283203125,-1.5106201171875,0.40283203125
1020,-1.021240234375,-1.5106201171875,-1.5106201171875,2.3162841796875
1021,-4.3446044921875,0.9063720703125,-1.5106201171875,1.5106201171875
1022,-1.5247802734375,-1.7120361328125,-1.5106201171875,-0.1007080078125
1023,-4.4453125,-1.9134521484375,-1.5106201171875,0.3021240234375
1024,-0.3162841796875,-4.0283203125,-1.5106201171875,0.7049560546875
1025,-0.618408203125,-0.9063720703125,-1.5106201171875,-0.40283203125
1026,1.0936279296875,2.7191162109375,-1.5106201171875,-1.1077880859375
1027,3.007080078125,-0.5035400390625,-1.5106201171875,1.9134521484375
1028,-0.215576171875,1.1077880859375,-1.5106201171875,-1.1077880859375
1029,-2.632568359375,7.049560546875,-1.5106201171875,1.007080078125
1030,-3.3375244140625,-2.1148681640625,-7.5531005859375,-0.3021240234375
1031,-0.618408203125,-1.812744140625,-6.84814453125,2.1148681640625
1032,-0.7191162109375,0.40283203125,-5.7403564453125,2.215576171875
1033,0.590087890625,2.81982421875,-5.3375244140625,1.1077880859375
1034,-1.5247802734375,4.1290283203125,-1.812744140625,2.3162841796875
1035,0.0865478515625,2.4169921875,-6.1431884765625,-0.8056640625
1036,1.2950439453125,-1.611328125,-3.5247802734375,0.1007080078125
1037,0.8922119140625,0.9063720703125,-3.22265625,1.20849609375
1038,-0.3162841796875,-0.604248046875,-2.5177001953125,1.007080078125
1039,-3.7403564453125,1.7120361328125,-2.1148681640625,0.1007080078125
1040,0.590087890625,3.9276123046875,-0.5035400390625,-1.20849609375
1041,0.2879638671875,3.3233642578125,-1.1077880859375,1.1077880859375
1042,0.187255859375,2.3162841796875,-1.812744140625,-0.1007080078125
1043,-3.6396484375,1.1077880859375,0.3021240234375,-4.0283203125
1044,-0.01416015625,1.20849609375,-1.5106201171875,-1.611328125
1045,0.6907958984375,-5.035400390625,2.9205322265625,0.201416015625
1046,-0.81982421875,-1.812744140625,-1.1077880859375,-2.9205322265625
1047,-1.9276123046875,0.40283203125,-0.9063720703125,-1.20849609375
1048,0.590087890625,-3.1219482421875,-2.81982421875,0.201416015625
1049,-6.3587646484375,-2.5177001953125,-3.3233642578125,0.201416015625
1050,-0.5177001953125,-1.3092041015625,-0.1007080078125,-0.7049560546875
1051,3.812744140625,-2.5177001953125,2.7191162109375,-0.1007080078125
1052,-2.0283203125,-7.1502685546875,-1.7120361328125,1.1077880859375
1053,0.0865478515625,-5.6396484375,0.5035400390625,-6.04248046875
1054,-2.0283203125,-6.646728515625,-0.40283203125,-3.021240234375
1055,1.0936279296875,-3.7261962890625,-1.409912109375,-3.1219482421875
1056,-1.22265625,-5.841064453125,-2.3162841796875,-2.1148681640625
1057,0.992919921875,-3.3233642578125,-2.7191162109375,-0.3021240234375
1058,-0.81982421875,-0.5035400390625,0.201416015625,-2.4169921875
1059,1.8992919921875,-1.7120361328125,3.3233642578125,-3.1219482421875
1060,-2.1290283203125,-0.8056640625,1.3092041015625,2.01416015625
1061,-3.7403564453125,-1.007080078125,0.40283203125,1.007080078125
1062,-1.62548828125,0.7049560546875,0.0,-2.3162841796875
1063,-8.272216796875,1.3092041015625,-0.201416015625,2.3162841796875
1064,-1.1219482421875,-0.1007080078125,-3.1219482421875,-0.1007080078125
1065,1.6978759765625,0.5035400390625,-8.5601806640625,2.3162841796875
1066,-2.1290283203125,-0.7049560546875,-3.7261962890625,-1.20849609375
1067,-0.1148681640625,-0.9063720703125,0.7049560546875,4.229736328125
1068,-1.3233642578125,1.1077880859375,-1.5106201171875,2.1148681640625
1069,-1.7261962890625,-2.1148681640625,-5.6396484375,2.9205322265625
1070,2.201416015625,-1.611328125,-4.43115234375,1.3092041015625
1071,-2.7332763671875,0.5035400390625,-3.1219482421875,0.7049560546875
1072,-0.9205322265625,-0.1007080078125,-1.9134521484375,-1.20849609375
1073,3.812744140625,-0.1007080078125,-6.4453125,1.1077880859375
1074,0.6907958984375,-0.9063720703125,-7.2509765625,-4.632568359375
1075,-0.7191162109375,-1.409912109375,-1.5106201171875,-5.035400390625
1076,-4.7474365234375,1.007080078125,-2.9205322265625,-2.7191162109375
1077,-1.7261962890625,0.8056640625,-1.1077880859375,-1.007080078125
1078,-0.3162841796875,2.9205322265625,-3.22265625,-2.9205322265625
1079,-0.4169921875,-2.618408203125,-1.5106201171875,1.611328125
1080,-5.855224609375,-2.618408203125,2.3162841796875,0.5035400390625
1081,-0.215576171875,0.9063720703125,-0.9063720703125,2.5177001953125
1082,1.6978759765625,1.7120361328125,-3.021240234375,0.0
1083,-2.632568359375,-2.618408203125,-1.409912109375,-4.1290283203125
1084,-4.4453125,2.5177001953125,-1.409912109375,1.9134521484375
1085,0.590087890625,-3.3233642578125,-2.215576171875,-0.5035400390625
1086,-0.3162841796875,-2.9205322265625,1.7120361328125,-0.8056640625
1087,-0.215576171875,-0.201416015625,-0.5035400390625,-0.9063720703125
1088,3.7120361328125,-3.1219482421875,0.40283203125,-0.1007080078125
1089,0.8922119140625,-3.9276123046875,1.9134521484375,-1.9134521484375
1090,0.590087890625,-1.5106201171875,0.201416015625,-2.7191162109375
1091,0.4893798828125,-0.8056640625,-0.604248046875,-4.0283203125
1092,-3.1361083984375,3.3233642578125,-0.7049560546875,-0.9063720703125
1093,-2.3304443359375,-2.1148681640625,-0.8056640625,0.5035400390625
1094,0.187255859375,-0.604248046875,-2.3162841796875,-4.1290283203125
1095,2.0,-1.9134521484375,-0.40283203125,-2.215576171875
1096,-1.9276123046875,-2.7191162109375,-3.5247802734375,-0.7049560546875
1097,-2.833984375,-3.3233642578125,-0.5035400390625,-3.7261962890625
1098,2.40283203125,-5.438232421875,-0.7049560546875,-0.3021240234375
1099,-2.0283203125,0.40283203125,-0.604248046875,0.5035400390625
1100,-0.3162841796875,-3.9276123046875,2.5177001953125,0.7049560546875
1101,-1.826904296875,-2.1148681640625,-1.20849609375,-0.1007080078125
1102,-5.049560546875,-4.1290283203125,-3.021240234375,-0.1007080078125
1103,-1.826904296875,-5.6396484375,-6.7474365234375,1.611328125
1104,-0.3162841796875,-2.618408203125,-2.7191162109375,-0.3021240234375
1105,0.0865478515625,-3.5247802734375,0.604248046875,-1.409912109375
1106,-3.1361083984375,-3.5247802734375,-1.5106201171875,-2.81982421875
1107,-1.424072265625,1.007080078125,-7.1502685546875,-3.7261962890625
1108,-0.215576171875,0.7049560546875,-5.5389404296875,1.007080078125
1109,-2.7332763671875,0.7049560546875,-1.3092041015625,0.9063720703125
1110,0.992919921875,0.7049560546875,-0.40283203125,0.5035400390625
1111,1.8992919921875,-6.3446044921875,-0.1007080078125,1.007080078125
1112,-1.5247802734375,1.3092041015625,-2.1148681640625,-1.9134521484375
1113,-0.5177001953125,-0.40283203125,-1.409912109375,0.604248046875
1114,0.6907958984375,-2.7191162109375,-3.22265625,2.3162841796875
1115,-0.618408203125,3.62548828125,-5.3375244140625,0.3021240234375
1116,2.0,2.01416015625,-1.5106201171875,0.9063720703125
1117,-2.1290283203125,2.3162841796875,-0.7049560546875,0.3021240234375
1118,-2.1290283203125,1.7120361328125,-1.3092041015625,-0.604248046875
1119,0.79150390625,-3.3233642578125,2.3162841796875,-0.201416015625
1120,-1.3233642578125,-1.007080078125,-0.201416015625,0.1007080078125
1121,-0.618408203125,3.62548828125,0.5035400390625,-2.81982421875
1122,-3.5389404296875,-4.7332763671875,-0.1007080078125,-2.9205322265625
1123,0.0865478515625,-0.3021240234375,-1.9134521484375,-4.1290283203125
1124,1.2950439453125,-4.0283203125,-1.7120361328125,-3.5247802734375
1125,1.4964599609375,0.201416015625,-3.5247802734375,-4.1290283203125
1126,1.2950439453125,-0.9063720703125,2.9205322265625,-1.812744140625
1127,-1.7261962890625,-3.5247802734375,-0.7049560546875,-0.9063720703125
1128,-4.646728515625,-4.43115234375,-1.812744140625,-2.5177001953125
1129,0.6907958984375,-2.7191162109375,-3.5247802734375,-2.1148681640625
1130,-2.5318603515625,-1.9134521484375,0.9063720703125,-1.5106201171875
1131,0.590087890625,-2.1148681640625,4.229736328125,0.7049560546875
1132,-2.0283203125,-3.021240234375,0.3021240234375,-0.201416015625
1133,-9.3800048828125,-1.3092041015625,-1.409912109375,-2.5177001953125
1134,-1.62548828125,-3.5247802734375,-1.9134521484375,-4.43115234375
1135,1.59716796875,-2.7191162109375,0.5035400390625,-4.3304443359375
1136,-0.5177001953125,-2.9205322265625,0.8056640625,-1.007080078125
1137,-1.62548828125,-4.1290283203125,-3.5247802734375,-0.604248046875
1138,-1.021240234375,-5.5389404296875,-7.3516845703125,0.5035400390625
1139,-1.5247802734375,-1.812744140625,-7.3516845703125,-0.9063720703125
1140,-1.9276123046875,-4.1290283203125,-2.9205322265625,1.409912109375
1141,3.1077880859375,-4.229736328125,-3.826904296875,-0.3021240234375
1142,-1.826904296875,-1.1077880859375,-4.9346923828125,2.3162841796875
1143,-2.5318603515625,0.7049560546875,-4.1290283203125,4.0283203125
1144,-1.7261962890625,-2.5177001953125,2.5177001953125,1.1077880859375
1145,-0.7191162109375,-0.1007080078125,-4.7332763671875,2.1148681640625
1146,-3.9417724609375,-2.9205322265625,-5.5389404296875,-0.1007080078125
1147,-3.7403564453125,0.3021240234375,-3.1219482421875,-2.5177001953125
1148,-3.5389404296875,-0.9063720703125,-2.3162841796875,-3.021240234375
1149,1.0936279296875,-2.215576171875,0.604248046875,-2.1148681640625
1150,1.8992919921875,-2.5177001953125,-1.812744140625,-1.1077880859375
1151,-0.7191162109375,-0.3021240234375,-2.7191162109375,0.5035400390625
1152,1.59716796875,-5.438232421875,-1.9134521484375,0.9063720703125
1153,0.79150390625,-1.1077880859375,-1.611328125,2.5177001953125
1154,-2.9346923828125,1.812744140625,-4.229736328125,4.3304443359375
1155,-0.4169921875,-0.201416015625,-3.424072265625,3.424072265625
1156,3.20849609375,-0.1007080078125,-4.1290283203125,2.7191162109375
1157,3.007080078125,4.1290283203125,-5.3375244140625,-0.1007080078125
1158,0.992919921875,-0.201416015625,-6.243896484375,-3.021240234375
1159,-3.7403564453125,2.1148681640625,-2.7191162109375,-0.40283203125
1160,-4.9488525390625,0.3021240234375,-5.9417724609375,0.40283203125
1161,-1.1219482421875,-1.20849609375,-4.5318603515625,-1.3092041015625
1162,-4.5460205078125,0.8056640625,-4.229736328125,-1.3092041015625
1163,-0.9205322265625,-0.604248046875,-4.229736328125,0.604248046875
1164,-0.9205322265625,-0.201416015625,-0.3021240234375,-1.611328125
1165,-0.7191162109375,-1.409912109375,4.229736328125,-2.618408203125
1166,0.0865478515625,-3.826904296875,-0.1007080078125,-1.1077880859375
1167,-0.5177001953125,-1.5106201171875,-2.7191162109375,-0.7049560546875
1168,-1.7261962890625,0.5035400390625,0.3021240234375,-0.1007080078125
1169,-0.9205322265625,-3.5247802734375,-1.1077880859375,-3.1219482421875
1170,-1.62548828125,-2.1148681640625,-2.01416015625,-1.3092041015625
1171,-1.1219482421875,-1.812744140625,-5.3375244140625,-0.604248046875
1172,-0.9205322265625,-2.5177001953125,-1.611328125,0.201416015625
1173,-0.7191162109375,-3.7261962890625,-3.7261962890625,-0.1007080078125
1174,2.1007080078125,-5.7403564453125,-3.826904296875,-0.5035400390625
1175,-0.81982421875,-0.1007080078125,-2.7191162109375,-1.20849609375
1176,-1.7261962890625,-4.1290283203125,-1.409912109375,-4.0283203125
1177,-2.229736328125,-6.9488525390625,0.40283203125,-3.62548828125
1178,-2.0283203125,-5.1361083984375,-5.3375244140625,-3.7261962890625
1179,-0.81982421875,-2.4169921875,-5.1361083984375,-0.604248046875
1180,-0.9205322265625,-6.243896484375,-6.04248046875,0.5035400390625
1181,-3.3375244140625,-2.81982421875,-5.1361083984375,0.7049560546875
1182,-3.9417724609375,-1.007080078125,-6.243896484375,-4.833984375
1183,-2.0283203125,-2.215576171875,-7.9559326171875,0.0
1184,-0.4169921875,0.1007080078125,-9.1644287109375,-0.5035400390625
1185,0.4893798828125,-2.9205322265625,-6.7474365234375,0.0
1186,0.0865478515625,-1.1077880859375,-7.5531005859375,0.8056640625
1187,-5.855224609375,-1.7120361328125,-6.646728515625,1.20849609375
1188,-4.9488525390625,-1.9134521484375,-8.45947265625,3.3233642578125
1189,-2.632568359375,-3.826904296875,-5.5389404296875,-0.604248046875
1190,-2.7332763671875,-6.7474365234375,-5.23681640625,-0.5035400390625
1191,-4.646728515625,-1.9134521484375,-2.81982421875,2.215576171875
1192,3.7120361328125,-1.9134521484375,-6.04248046875,-0.5035400390625
1193,-0.215576171875,-1.9134521484375,-4.9346923828125,1.611328125
1194,0.6907958984375,-1.5106201171875,-5.1361083984375,-1.812744140625
1195,-1.5247802734375,3.22265625,-8.3587646484375,-2.3162841796875
1196,-3.841064453125,-1.5106201171875,-1.20849609375,-4.3304443359375
1197,-0.7191162109375,-2.1148681640625,-6.3446044921875,-3.9276123046875
1198,-3.841064453125,0.5035400390625,-3.5247802734375,-1.1077880859375
1199,-2.632568359375,1.20849609375,-2.9205322265625,0.7049560546875
1200,0.8922119140625,-2.9205322265625,-4.5318603515625,-4.0283203125
1201,-2.3304443359375,3.62548828125,-5.438232421875,-1.3092041015625
1202,-3.7403564453125,0.201416015625,-3.5247802734375,-3.7261962890625
1203,-3.438232421875,-3.5247802734375,-1.7120361328125,-6.84814453125
1204,-1.424072265625,-1.20849609375,-4.632568359375,-4.43115234375
1205,1.6978759765625,-1.1077880859375,-3.3233642578125,-3.5247802734375
1206,0.992919921875,-1.5106201171875,0.7049560546875,-4.1290283203125
1207,-0.5177001953125,-2.4169921875,-3.3233642578125,-7.2509765625
1208,-0.9205322265625,-7.049560546875,0.40283203125,-3.62548828125
1209,-1.9276123046875,-3.5247802734375,-1.1077880859375,-6.7474365234375
1210,-1.021240234375,-0.7049560546875,0.40283203125,-8.258056640625
1211,-0.3162841796875,-5.7403564453125,-1.3092041015625,-5.1361083984375
1212,0.590087890625,-4.3304443359375,0.0,-8.7615966796875
1213,1.0936279296875,-5.035400390625,-2.4169921875,-7.1502685546875
1214,-3.035400390625,-2.215576171875,-0.1007080078125,-12.286376953125
1215,-3.7403564453125,-4.0283203125,-0.7049560546875,-9.5672607421875
1216,-2.1290283203125,-7.1502685546875,-1.9134521484375,-11.279296875
1217,-1.424072265625,-5.23681640625,0.3021240234375,-3.826904296875
1218,-6.660888671875,-4.229736328125,-1.5106201171875,-5.1361083984375
1219,2.9063720703125,-2.01416015625,-3.1219482421875,-7.65380859375
1220,2.201416015625,-5.23681640625,-2.1148681640625,-12.5885009765625
1221,1.6978759765625,-5.7403564453125,-4.0283203125,-5.1361083984375
1222,-1.424072265625,-4.1290283203125,-3.5247802734375,-3.7261962890625
1223,0.388671875,-3.021240234375,-4.7332763671875,-3.7261962890625
1224,0.0865478515625,-1.9134521484375,-0.3021240234375,-1.5106201171875
1225,-1.1219482421875,-1.409912109375,-3.1219482421875,-2.81982421875
1226,-1.22265625,-0.3021240234375,-4.833984375,-0.1007080078125
1227,-2.229736328125,-0.3021240234375,-1.7120361328125,-3.22265625
1228,-1.7261962890625,-4.3304443359375,-1.7120361328125,-0.40283203125
1229,-3.438232421875,0.3021240234375,-5.5389404296875,-0.604248046875
1230,2.8056640625,-1.1077880859375,0.9063720703125,-2.1148681640625
1231,-0.4169921875,1.3092041015625,-2.618408203125,-1.1077880859375
1232,-1.424072265625,1.3092041015625,-3.5247802734375,-1.9134521484375
1233,-0.4169921875,1.7120361328125,-1.409912109375,0.201416015625
1234,-2.229736328125,-0.1007080078125,-2.5177001953125,3.424072265625
1235,1.4964599609375,1.7120361328125,-0.3021240234375,-1.812744140625
1236,-1.424072265625,6.243896484375,-0.8056640625,-1.7120361328125
1237,-1.424072265625,2.3162841796875,0.604248046875,2.1148681640625
1238,-0.3162841796875,1.611328125,1.1077880859375,-0.201416015625
1239,-5.1502685546875,1.9134521484375,-1.1077880859375,4.1290283203125
1240,-0.5177001953125,0.3021240234375,-1.3092041015625,1.007080078125
1241,1.395751953125,-0.201416015625,-3.1219482421875,-1.9134521484375
1242,-0.4169921875,-0.1007080078125,1.007080078125,1.9134521484375
1243,2.5035400390625,1.5106201171875,3.62548828125,0.3021240234375
1244,0.0865478515625,2.215576171875,0.7049560546875,1.9134521484375
1245,-0.3162841796875,3.7261962890625,0.40283203125,-2.1148681640625
1246,-1.7261962890625,-0.1007080078125,0.40283203125,-0.5035400390625
1247,-0.618408203125,-0.604248046875,2.01416015625,-1.3092041015625
1248,-2.1290283203125,-3.62548828125,-0.1007080078125,-0.9063720703125
1249,-1.1219482421875,-2.1148681640625,1.1077880859375,3.9276123046875
1250,1.395751953125,-2.1148681640625,-2.5177001953125,2.3162841796875
1251,2.40283203125,-1.409912109375,3.424072265625,-0.1007080078125
1252,-0.3162841796875,-3.424072265625,-0.9063720703125,2.9205322265625
1253,-4.243896484375,-4.5318603515625,-4.1290283203125,2.4169921875
1254,-3.035400390625,-0.9063720703125,-0.1007080078125,1.3092041015625
1255,1.6978759765625,-1.1077880859375,-3.1219482421875,2.7191162109375
1256,-0.618408203125,-1.3092041015625,1.007080078125,-1.409912109375
1257,0.8922119140625,-5.438232421875,-2.3162841796875,-0.7049560546875
1258,-2.7332763671875,-0.604248046875,-2.4169921875,-3.424072265625
1259,-3.5389404296875,0.3021240234375,-1.3092041015625,-0.1007080078125
1260,-1.7261962890625,0.201416015625,-0.8056640625,-0.1007080078125
1261,-0.1148681640625,-0.1007080078125,-4.1290283203125,3.826904296875
1262,0.992919921875,-3.424072265625,-4.7332763671875,2.1148681640625
1263,-0.9205322265625,-2.4169921875,-3.3233642578125,1.5106201171875
1264,-0.7191162109375,0.9063720703125,-4.5318603515625,1.3092041015625
1265,-1.5247802734375,0.9063720703125,-2.1148681640625,1.20849609375
1266,-0.3162841796875,1.9134521484375,-0.40283203125,0.604248046875
1267,-0.5177001953125,1.1077880859375,-3.5247802734375,2.9205322265625
1268,0.79150390625,1.1077880859375,-3.5247802734375,-1.5106201171875
1269,-1.9276123046875,2.9205322265625,-3.5247802734375,5.7403564453125
1270,2.604248046875,1.1077880859375,-3.5247802734375,6.646728515625
1271,1.2950439453125,0.5035400390625,-3.5247802734375,3.9276123046875
1272,-2.7332763671875,4.5318603515625,-3.5247802734375,2.7191162109375
1273,-0.3162841796875,3.021240234375,-3.5247802734375,2.81982421875
1274,0.4893798828125,3.22265625,-3.5247802734375,3.3233642578125
1275,0.0865478515625,1.20849609375,-3.5247802734375,-0.9063720703125
1276,4.3162841796875,1.812744140625,-3.5247802734375,2.9205322265625
1277,1.0936279296875,2.3162841796875,-3.5247802734375,5.5389404296875
1278,-0.7191162109375,1.007080078125,-3.5247802734375,4.0283203125
1279,-0.01416015625,1.9134521484375,-3.5247802734375,0.5035400390625
1280,1.59716796875,2.3162841796875,-3.5247802734375,-0.3021240234375
1281,0.79150390625,3.9276123046875,-3.5247802734375,-2.4169921875
1282,-0.7191162109375,0.604248046875,-0.201416015625,-2.4169921875
1283,0.4893798828125,-0.1007080078125,-0.7049560546875,-2.4169921875
1284,3.812744140625,1.409912109375,-3.424072265625,-2.4169921875
1285,-1.021240234375,-1.20849609375,2.01416015625,-2.4169921875
1286,0.79150390625,1.007080078125,-3.5247802734375,-2.4169921875
1287,0.4893798828125,-1.1077880859375,-2.7191162109375,-2.4169921875
1288,-3.9417724609375,-1.9134521484375,-2.5177001953125,-2.4169921875
1289,1.8992919921875,-3.424072265625,-1.1077880859375,-2.4169921875
1290,2.9063720703125,-4.229736328125,-4.3304443359375,-2.4169921875
1291,1.8992919921875,3.7261962890625,-1.1077880859375,-2.4169921875
1292,0.0865478515625,-1.409912109375,1.9134521484375,-2.4169921875
1293,-2.3304443359375,-5.9417724609375,0.1007080078125,-2.4169921875
1294,-2.5318603515625,-2.81982421875,4.229736328125,-2.4169921875
1295,1.395751953125,-4.229736328125,0.5035400390625,-2.4169921875
1296,-0.81982421875,-0.5035400390625,-1.812744140625,4.5318603515625
1297,-1.826904296875,0.5035400390625,0.9063720703125,3.5247802734375
1298,-0.3162841796875,-2.81982421875,0.5035400390625,2.3162841796875
1299,-2.0283203125,-0.9063720703125,0.3021240234375,1.611328125
1300,-3.3375244140625,-4.1290283203125,-3.021240234375,-0.7049560546875
1301,1.798583984375,-2.9205322265625,-3.22265625,1.007080078125
1302,1.8992919921875,-0.1007080078125,-1.3092041015625,-2.215576171875
1303,1.2950439453125,-0.1007080078125,-3.424072265625,3.021240234375
1304,0.4893798828125,0.8056640625,-4.43115234375,6.243896484375
1305,3.3092041015625,0.7049560546875,-6.04248046875,4.5318603515625
1306,-0.9205322265625,-1.9134521484375,-5.841064453125,1.3092041015625
1307,1.2950439453125,-1.5106201171875,-3.22265625,2.215576171875
1308,-0.618408203125,1.20849609375,-7.049560546875,3.826904296875
1309,-2.229736328125,0.40283203125,-1.5106201171875,6.1431884765625
1310,1.395751953125,1.3092041015625,-6.1431884765625,-0.1007080078125
1311,0.388671875,-0.1007080078125,-8.5601806640625,3.22265625
1312,-2.632568359375,-2.4169921875,-5.1361083984375,2.3162841796875
1313,-2.1290283203125,-0.3021240234375,-3.9276123046875,4.1290283203125
1314,-2.3304443359375,-0.1007080078125,-6.243896484375,2.3162841796875
1315,-4.9488525390625,1.9134521484375,0.7049560546875,-0.7049560546875
1316,-1.1219482421875,3.021240234375,-1.5106201171875,-1.007080078125
1317,0.6907958984375,-0.3021240234375,-4.7332763671875,-0.201416015625
1318,-6.45947265625,0.40283203125,-3.9276123046875,1.9134521484375
1319,-3.5389404296875,0.604248046875,-3.62548828125,-2.618408203125
1320,-2.3304443359375,0.1007080078125,-0.9063720703125,-2.5177001953125
1321,0.6907958984375,-0.3021240234375,-0.1007080078125,-2.4169921875
1322,0.992919921875,0.0,-2.3162841796875,-5.5389404296875
1323,-0.5177001953125,-2.5177001953125,-2.5177001953125,-2.9205322265625
1324,-2.1290283203125,-3.9276123046875,-0.3021240234375,-6.3446044921875
1325,-1.5247802734375,-0.5035400390625,-1.812744140625,-3.7261962890625
1326,-2.5318603515625,2.3162841796875,0.40283203125,-7.7545166015625
1327,-3.1361083984375,-2.9205322265625,-6.243896484375,-4.632568359375
1328,-0.7191162109375,-0.7049560546875,-2.215576171875,-3.826904296875
1329,-0.9205322265625,-0.1007080078125,-2.01416015625,-9.063720703125
1330,-1.22265625,-1.611328125,-3.424072265625,-5.7403564453125
1331,-0.7191162109375,1.3092041015625,-1.9134521484375,-4.43115234375
1332,-4.3446044921875,-3.826904296875,2.5177001953125,-0.9063720703125
1333,4.3162841796875,-5.23681640625,0.0,-3.5247802734375
1334,0.0865478515625,-5.438232421875,-0.201416015625,-1.1077880859375
1335,-2.1290283203125,-4.1290283203125,-0.9063720703125,-1.1077880859375
1336,-1.424072265625,-4.5318603515625,-0.5035400390625,-2.7191162109375
1337,-1.5247802734375,-2.9205322265625,0.604248046875,-2.9205322265625
1338,-5.2509765625,-2.9205322265625,-2.4169921875,-2.4169921875
1339,-2.632568359375,-8.3587646484375,2.1148681640625,-1.5106201171875
1340,2.0,-3.021240234375,1.20849609375,2.3162841796875
1341,0.388671875,0.3021240234375,-2.7191162109375,1.1077880859375
1342,-1.9276123046875,-3.021240234375,-3.7261962890625,0.7049560546875
1343,2.0,-0.3021240234375,-3.9276123046875,1.3092041015625
1344,0.6907958984375,-3.1219482421875,-1.5106201171875,2.215576171875
1345,0.388671875,-3.9276123046875,-0.9063720703125,2.7191162109375
1346,-2.43115234375,-2.4169921875,-2.1148681640625,4.9346923828125
1347,-3.5389404296875,-0.8056640625,-2.3162841796875,3.62548828125
1348,3.9134521484375,-1.9134521484375,-3.5247802734375,4.7332763671875
1349,3.20849609375,2.1148681640625,-5.6396484375,4.0283203125
1350,0.4893798828125,4.43115234375,-5.5389404296875,3.021240234375
1351,0.992919921875,-0.201416015625,-3.826904296875,5.9417724609375
1352,1.1943359375,2.3162841796875,-3.5247802734375,5.1361083984375
1353,2.0,1.611328125,-2.3162841796875,5.3375244140625
1354,-1.9276123046875,-2.215576171875,-1.5106201171875,8.8623046875
1355,0.0865478515625,2.3162841796875,-4.7332763671875,3.22265625
1356,0.4893798828125,0.9063720703125,-1.1077880859375,2.5177001953125
1357,0.2879638671875,-0.1007080078125,-0.604248046875,2.3162841796875
1358,0.0865478515625,1.1077880859375,0.7049560546875,2.9205322265625
1359,-0.1148681640625,0.9063720703125,2.1148681640625,5.6396484375
1360,1.8992919921875,-0.40283203125,2.1148681640625,5.438232421875
1361,-3.1361083984375,4.1290283203125,1.9134521484375,-0.1007080078125
1362,3.1077880859375,-1.3092041015625,-1.20849609375,0.3021240234375
1363,-4.84814453125,-3.3233642578125,3.3233642578125,2.3162841796875
1364,-3.035400390625,-3.7261962890625,-0.1007080078125,0.1007080078125
1365,-0.4169921875,-3.424072265625,3.3233642578125,-2.1148681640625
1366,-0.4169921875,-3.5247802734375,0.5035400390625,-1.409912109375
1367,-2.0283203125,-2.215576171875,-0.1007080078125,-2.5177001953125
1368,-1.7261962890625,-2.5177001953125,1.1077880859375,0.3021240234375
1369,-3.1361083984375,-2.81982421875,2.01416015625,-0.5035400390625
1370,-2.833984375,-2.01416015625,-0.201416015625,-4.1290283203125
1371,-0.618408203125,-2.01416015625,-1.611328125,-3.9276123046875
1372,-1.5247802734375,-0.8056640625,-0.5035400390625,0.201416015625
1373,-2.7332763671875,0.9063720703125,-0.1007080078125,-2.5177001953125
1374,1.798583984375,-1.20849609375,-1.9134521484375,-5.1361083984375
1375,-4.9488525390625,-3.3233642578125,-3.62548828125,-4.43115234375
1376,-0.7191162109375,-2.4169921875,-9.26513671875,-5.9417724609375
1377,0.2879638671875,-3.021240234375,-4.43115234375,-7.855224609375
1378,-0.5177001953125,-5.1361083984375,-2.5177001953125,-2.01416015625
1379,-2.833984375,-2.3162841796875,-0.3021240234375,-2.81982421875
1380,-1.5247802734375,0.1007080078125,-3.3233642578125,-2.3162841796875
1381,-2.833984375,-0.7049560546875,-0.9063720703125,-4.3304443359375
1382,4.215576171875,-0.201416015625,-1.9134521484375,-3.22265625
1383,-0.9205322265625,-3.7261962890625,-5.035400390625,1.3092041015625
1384,1.798583984375,-4.229736328125,-4.3304443359375,-1.3092041015625
1385,1.2950439453125,-1.7120361328125,-3.7261962890625,-1.1077880859375
1386,-0.4169921875,0.5035400390625,-3.3233642578125,-4.43115234375
1387,1.798583984375,-3.7261962890625,-3.9276123046875,-3.9276123046875
1388,-4.3446044921875,2.1148681640625,-5.9417724609375,-3.7261962890625
1389,-4.243896484375,0.5035400390625,-0.9063720703125,-6.7474365234375
1390,7.3375244140625,-0.604248046875,-4.7332763671875,-5.035400390625
1391,4.618408203125,-2.5177001953125,-3.62548828125,-0.7049560546875
1392,-5.1502685546875,0.201416015625,-4.5318603515625,-2.1148681640625
1393,2.3021240234375,3.5247802734375,-6.7474365234375,-5.5389404296875
1394,-4.5460205078125,0.201416015625,-6.7474365234375,-6.1431884765625
1395,1.1943359375,-0.3021240234375,-2.5177001953125,-0.5035400390625
1396,1.4964599609375,0.201416015625,-3.826904296875,-1.5106201171875
1397,4.9205322265625,-2.01416015625,-5.438232421875,-1.007080078125
1398,1.59716796875,-0.5035400390625,-4.1290283203125,-0.5035400390625
1399,-0.01416015625,2.81982421875,-3.1219482421875,-0.5035400390625
1400,1.0936279296875,-2.9205322265625,-1.5106201171875,0.3021240234375
1401,-1.5247802734375,-1.1077880859375,-0.8056640625,1.1077880859375
1402,-2.5318603515625,1.1077880859375,-1.1077880859375,-0.5035400390625
1403,0.0865478515625,-2.4169921875,-1.611328125,1.409912109375
1404,-1.22265625,-1.3092041015625,-0.3021240234375,-4.0283203125
1405,-0.5177001953125,0.5035400390625,1.1077880859375,-0.604248046875
1406,-1.5247802734375,3.9276123046875,-0.9063720703125,1.20849609375
1407,-1.9276123046875,-2.5177001953125,1.409912109375,-0.40283203125
1408,-0.5177001953125,-0.3021240234375,0.3021240234375,0.3021240234375
1409,2.9063720703125,-3.5247802734375,0.201416015625,-1.9134521484375
1410,-2.43115234375,-5.438232421875,-1.611328125,1.3092041015625
1411,-0.3162841796875,-3.1219482421875,1.9134521484375,-0.9063720703125
1412,-2.43115234375,-2.3162841796875,0.201416015625,-2.7191162109375
1413,-0.5177001953125,-2.7191162109375,-0.3021240234375,-1.9134521484375
1414,0.0865478515625,-3.9276123046875,-1.20849609375,0.7049560546875
1415,-3.1361083984375,-0.9063720703125,-1.3092041015625,-4.3304443359375
1416,-0.1148681640625,-1.1077880859375,-2.3162841796875,0.201416015625
1417,-3.035400390625,-0.9063720703125,-2.01416015625,-1.007080078125
1418,-3.6396484375,3.7261962890625,-5.438232421875,-2.7191162109375
1419,-0.9205322265625,-3.1219482421875,-4.43115234375,-7.3516845703125
1420,3.007080078125,-0.40283203125,-1.812744140625,-2.4169921875
1421,-3.1361083984375,-0.604248046875,-3.1219482421875,-1.5106201171875
1422,-1.424072265625,-2.3162841796875,-5.438232421875,-2.81982421875
1423,-2.1290283203125,-1.1077880859375,-1.3092041015625,0.1007080078125
1424,-1.1219482421875,-4.229736328125,-3.22265625,1.20849609375
1425,-0.4169921875,-4.3304443359375,-0.604248046875,-2.01416015625
1426,-0.5177001953125,-4.833984375,-2.5177001953125,-2.1148681640625
1427,1.395751953125,-1.20849609375,0.201416015625,-2.9205322265625
1428,-0.4169921875,-1.5106201171875,-3.9276123046875,-0.7049560546875
1429,3.20849609375,0.7049560546875,-1.1077880859375,2.5177001953125
1430,-0.5177001953125,-1.7120361328125,-3.1219482421875,3.021240234375
1431,1.6978759765625,0.1007080078125,0.8056640625,4.229736328125
1432,-1.021240234375,-0.604248046875,-4.7332763671875,1.812744140625
1433,-6.5601806640625,-0.7049560546875,-4.632568359375,2.3162841796875
1434,2.1007080078125,0.5035400390625,-1.409912109375,2.3162841796875
1435,1.395751953125,0.9063720703125,-4.9346923828125,-0.1007080078125
1436,0.187255859375,2.1148681640625,-8.660888671875,-0.40283203125
1437,0.0865478515625,-1.1077880859375,-3.3233642578125,1.9134521484375
1438,0.6907958984375,-2.1148681640625,-1.1077880859375,1.409912109375
1439,0.6907958984375,-0.3021240234375,-0.9063720703125,0.7049560546875
1440,1.2950439453125,-0.1007080078125,0.0,1.7120361328125
1441,-4.7474365234375,-1.007080078125,-0.7049560546875,-2.1148681640625
1442,-0.81982421875,-0.8056640625,2.618408203125,-2.5177001953125
1443,0.4893798828125,-0.9063720703125,-0.201416015625,0.9063720703125
1444,0.388671875,2.3162841796875,3.22265625,1.007080078125
1445,-0.618408203125,6.84814453125,0.1007080078125,0.7049560546875
1446,3.409912109375,-0.5035400390625,2.3162841796875,3.9276123046875
1447,3.7120361328125,2.9205322265625,-1.007080078125,5.3375244140625
1448,3.1077880859375,-0.7049560546875,-1.20849609375,4.1290283203125
1449,-1.021240234375,-2.4169921875,0.7049560546875,7.65380859375
1450,1.798583984375,2.9205322265625,1.1077880859375,10.7757568359375
1451,-2.833984375,-1.20849609375,0.3021240234375,8.9630126953125
1452,-3.7403564453125,0.9063720703125,-0.40283203125,11.9842529296875
1453,-2.5318603515625,-5.7403564453125,2.1148681640625,7.7545166015625
1454,-2.0283203125,-3.7261962890625,2.7191162109375,5.1361083984375
1455,-0.1148681640625,-4.1290283203125,-3.826904296875,2.9205322265625
1456,-2.229736328125,-4.632568359375,-2.215576171875,4.229736328125
1457,-3.3375244140625,-5.1361083984375,0.8056640625,7.3516845703125
1458,0.6907958984375,-1.611328125,-2.5177001953125,11.7828369140625
1459,-2.833984375,-1.409912109375,0.8056640625,9.7686767578125
1460,-1.1219482421875,-2.5177001953125,-1.007080078125,12.3870849609375
1461,-0.7191162109375,-3.9276123046875,-2.3162841796875,12.890625
1462,-2.3304443359375,-2.5177001953125,-5.035400390625,10.4736328125
1463,-0.01416015625,-2.215576171875,-4.3304443359375,13.092041015625
1464,-2.833984375,-0.7049560546875,-6.9488525390625,8.3587646484375
1465,-2.7332763671875,0.8056640625,-7.65380859375,3.9276123046875
1466,-0.1148681640625,1.1077880859375,-7.452392578125,0.604248046875
1467,-0.618408203125,-2.01416015625,-6.84814453125,-1.007080078125
1468,-1.424072265625,-1.9134521484375,-7.7545166015625,-0.201416015625
1469,1.6978759765625,-0.604248046875,-5.5389404296875,-4.7332763671875
1470,-4.646728515625,-1.1077880859375,-4.3304443359375,-9.466552734375
1471,-0.9205322265625,0.5035400390625,-4.3304443359375,-8.3587646484375
1472,-2.3304443359375,0.1007080078125,-6.9488525390625,-6.3446044921875
1473,-2.7332763671875,-0.1007080078125,-3.9276123046875,-1.20849609375
1474,0.590087890625,-0.9063720703125,-3.62548828125,5.1361083984375
1475,0.0865478515625,7.1502685546875,-6.4453125,4.1290283203125
1476,0.388671875,0.40283203125,-4.7332763671875,1.1077880859375
1477,-1.5247802734375,-0.8056640625,-6.243896484375,0.0
1478,-0.7191162109375,-1.9134521484375,-3.5247802734375,-2.5177001953125
1479,-1.7261962890625,0.0,-0.7049560546875,-2.3162841796875
1480,-4.243896484375,-4.229736328125,-4.833984375,-4.229736328125
1481,-3.3375244140625,-0.5035400390625,1.3092041015625,-3.826904296875
1482,-2.632568359375,-2.5177001953125,-5.3375244140625,-5.035400390625
1483,4.215576171875,-0.1007080078125,-3.1219482421875,-7.1502685546875
1484,-3.841064453125,-3.22265625,-4.3304443359375,-8.45947265625
1485,-4.7474365234375,-0.1007080078125,-6.3446044921875,-8.45947265625
1486,-3.035400390625,-0.3021240234375,-2.9205322265625,-12.890625
1487,-0.7191162109375,-1.812744140625,-3.7261962890625,-16.4154052734375
1488,1.2950439453125,-3.7261962890625,-6.9488525390625,-12.7899169921875
1489,-1.62548828125,-4.7332763671875,-5.841064453125,-16.51611328125
1490,-3.035400390625,-1.20849609375,-1.7120361328125,-15.0054931640625
1491,-3.1361083984375,1.7120361328125,-3.5247802734375,-11.5814208984375
1492,-3.1361083984375,-1.20849609375,-4.7332763671875,-10.3729248046875
1493,-2.7332763671875,-0.604248046875,-3.826904296875,-10.5743408203125
1494,-0.81982421875,-2.7191162109375,-2.9205322265625,-12.5885009765625
1495,1.6978759765625,-3.1219482421875,-3.021240234375,-7.7545166015625
1496,-1.1219482421875,-4.833984375,-2.1148681640625,-5.841064453125
1497,3.007080078125,-4.9346923828125,-5.23681640625,-7.452392578125
1498,-0.9205322265625,-2.4169921875,-4.9346923828125,-5.841064453125
1499,-2.0283203125,-1.812744140625,-1.1077880859375,-3.021240234375
1500,-3.841064453125,5.23681640625,-7.3516845703125,-0.1007080078125
1501,-0.7191162109375,-2.5177001953125,-5.1361083984375,-3.1219482421875
1502,-1.424072265625,2.01416015625,-6.9488525390625,-1.9134521484375
1503,-0.4169921875,-0.1007080078125,-2.618408203125,-4.5318603515625
1504,-1.1219482421875,0.40283203125,-4.0283203125,-5.1361083984375
1505,-1.826904296875,-2.81982421875,-4.5318603515625,-5.3375244140625
1506,-4.04248046875,-0.3021240234375,-3.5247802734375,-2.5177001953125
1507,-1.3233642578125,0.3021240234375,-1.9134521484375,1.20849609375
1508,-0.5177001953125,1.3092041015625,-1.409912109375,0.0
1509,0.388671875,2.3162841796875,-3.826904296875,2.81982421875
1510,-2.43115234375,0.1007080078125,-2.7191162109375,2.7191162109375
1511,-0.5177001953125,-1.1077880859375,-5.5389404296875,4.9346923828125
1512,-3.7403564453125,1.409912109375,0.40283203125,5.841064453125
1513,-4.7474365234375,0.604248046875,-3.1219482421875,4.43115234375
1514,-0.01416015625,2.1148681640625,-2.9205322265625,4.43115234375
1515,4.9205322265625,-1.3092041015625,-2.9205322265625,4.1290283203125
1516,0.2879638671875,-1.7120361328125,-2.618408203125,8.5601806640625
1517,-0.01416015625,-0.9063720703125,0.40283203125,6.243896484375
1518,-0.3162841796875,-0.3021240234375,-4.229736328125,-1.007080078125
1519,1.8992919921875,-0.40283203125,0.5035400390625,-2.4169921875
1520,-1.62548828125,-1.9134521484375,-1.9134521484375,-6.4453125
1521,-0.7191162109375,0.7049560546875,0.5035400390625,-11.9842529296875
1522,-0.9205322265625,-0.7049560546875,4.0283203125,-15.4083251953125
1523,-3.841064453125,0.1007080078125,-0.8056640625,-14.4012451171875
1524,-0.5177001953125,0.40283203125,2.3162841796875,-12.5885009765625
1525,-1.9276123046875,1.3092041015625,2.5177001953125,-9.5672607421875
1526,-2.833984375,1.5106201171875,-1.7120361328125,-10.7757568359375
1527,1.4964599609375,-3.826904296875,-1.20849609375,-10.272216796875
1528,-1.424072265625,-3.9276123046875,4.5318603515625,-7.9559326171875
1529,-3.035400390625,-1.1077880859375,2.3162841796875,-9.26513671875
1530,-4.04248046875,-0.3021240234375,1.812744140625,-3.7261962890625
1531,-3.3375244140625,-1.1077880859375,2.215576171875,-1.5106201171875
1532,-2.7332763671875,-2.5177001953125,-2.7191162109375,-2.7191162109375
1533,-0.9205322265625,-4.1290283203125,1.1077880859375,0.1007080078125
1534,-1.021240234375,-4.43115234375,1.007080078125,-0.7049560546875
1535,-1.9276123046875,-3.1219482421875,0.7049560546875,2.618408203125
1536,-1.826904296875,-2.618408203125,4.1290283203125,10.5743408203125
1537,-2.9346923828125,-2.3162841796875,-1.5106201171875,12.5885009765625
1538,1.8992919921875,-3.62548828125,1.007080078125,16.6168212890625
1539,-1.5247802734375,-3.9276123046875,-3.021240234375,25.78125
1540,4.9205322265625,-5.438232421875,-2.7191162109375,25.579833984375
1541,0.187255859375,-1.409912109375,-4.632568359375,23.0621337890625
1542,-0.7191162109375,-2.5177001953125,1.812744140625,17.0196533203125
1543,-2.632568359375,1.409912109375,-0.5035400390625,17.32177734375
1544,-0.4169921875,1.3092041015625,-1.007080078125,13.494873046875
1545,-2.833984375,-0.3021240234375,3.9276123046875,10.5743408203125
1546,-2.1290283203125,-2.7191162109375,5.7403564453125,9.3658447265625
1547,-6.660888671875,-0.7049560546875,5.7403564453125,9.466552734375
1548,-1.9276123046875,3.7261962890625,2.5177001953125,9.1644287109375
1549,-0.7191162109375,1.007080078125,2.3162841796875,11.9842529296875
1550,-0.9205322265625,0.201416015625,-2.3162841796875,15.6097412109375
1551,0.79150390625,-2.1148681640625,-2.7191162109375,16.11328125
1552,-0.81982421875,1.812744140625,-3.62548828125,19.6380615234375
1553,-1.826904296875,0.3021240234375,-3.3233642578125,16.2139892578125
1554,0.187255859375,2.618408203125,-0.9063720703125,17.724609375
1555,-4.1431884765625,1.5106201171875,-3.7261962890625,16.51611328125
1556,-3.9417724609375,1.1077880859375,-1.5106201171875,15.2069091796875
1557,-2.9346923828125,-0.9063720703125,-0.1007080078125,15.2069091796875
1558,2.3021240234375,-0.1007080078125,-0.8056640625,18.5302734375
1559,-1.5247802734375,8.1573486328125,4.7332763671875,14.6026611328125
1560,-1.5247802734375,2.01416015625,2.4169921875,12.9913330078125
1561,-3.23681640625,-2.1148681640625,5.6396484375,10.3729248046875
1562,-2.632568359375,-2.7191162109375,-0.40283203125,9.7686767578125
1563,-4.9488525390625,-3.22265625,4.9346923828125,5.5389404296875
1564,-1.5247802734375,-1.5106201171875,3.7261962890625,9.466552734375
1565,-5.5531005859375,-1.611328125,2.7191162109375,12.689208984375
1566,-1.3233642578125,-0.40283203125,-0.1007080078125,20.6451416015625
1567,-1.7261962890625,-2.9205322265625,-2.7191162109375,27.8961181640625
1568,-1.7261962890625,-1.812744140625,-1.007080078125,29.9102783203125
1569,1.2950439453125,-3.22265625,-1.3092041015625,34.9456787109375
1570,-5.5531005859375,-1.3092041015625,-2.7191162109375,40.68603515625
1571,0.4893798828125,-4.3304443359375,-6.3446044921875,40.68603515625
1572,1.1943359375,-5.841064453125,-6.1431884765625,40.484619140625
1573,1.8992919921875,-2.81982421875,-6.1431884765625,38.9739990234375
1574,-2.43115234375,-5.841064453125,-8.1573486328125,42.1966552734375
1575,-1.021240234375,-2.618408203125,-6.3446044921875,40.68603515625
1576,-5.65380859375,-5.6396484375,-10.675048828125,31.5216064453125
1577,-2.1290283203125,-2.7191162109375,-10.87646484375,28.802490234375
1578,-0.5177001953125,-3.5247802734375,-11.9842529296875,27.8961181640625
1579,-1.826904296875,-3.62548828125,-9.66796875,23.3642578125
1580,-1.021240234375,-0.8056640625,-16.11328125,17.8253173828125
1581,-4.1431884765625,-0.8056640625,-13.6962890625,3.3233642578125
1582,1.8992919921875,-2.215576171875,-11.5814208984375,-9.66796875
1583,1.798583984375,0.604248046875,-12.7899169921875,-23.2635498046875
1584,2.3021240234375,-5.5389404296875,-10.3729248046875,-36.2548828125
1585,0.0865478515625,0.604248046875,-4.9346923828125,-55.8929443359375
1586,-6.9630126953125,0.201416015625,-2.9205322265625,-75.6317138671875
1587,-0.3162841796875,-1.20849609375,1.409912109375,-88.623046875
1588,1.4964599609375,-0.1007080078125,0.5035400390625,-87.01171875
1589,-0.618408203125,-0.3021240234375,2.5177001953125,-80.56640625
1590,0.388671875,-1.3092041015625,0.201416015625,-70.3948974609375
1591,-2.3304443359375,2.3162841796875,-0.1007080078125,-64.1510009765625
1592,-0.215576171875,-1.5106201171875,-2.1148681640625,-55.2886962890625
1593,0.4893798828125,1.20849609375,0.7049560546875,-51.361083984375
1594,-0.4169921875,1.409912109375,-2.9205322265625,-41.49169921875
1595,0.8922119140625,2.1148681640625,-0.201416015625,-27.593994140625
1596,0.992919921875,-1.007080078125,1.20849609375,-18.0267333984375
1597,1.1943359375,0.5035400390625,-0.1007080078125,-10.9771728515625
1598,-0.9205322265625,0.3021240234375,0.5035400390625,-6.4453125
1599,-2.0283203125,1.812744140625,0.40283203125,-2.9205322265625
1600,0.8922119140625,1.1077880859375,2.7191162109375,1.7120361328125
1601,-3.841064453125,0.9063720703125,2.215576171875,6.1431884765625
1602,-3.438232421875,-1.5106201171875,-1.611328125,8.056640625
1603,-1.424072265625,-3.22265625,-1.409912109375,6.5460205078125
1604,-2.9346923828125,2.1148681640625,-0.1007080078125,4.0283203125
1605,-0.1148681640625,-2.1148681640625,-4.3304443359375,6.7474365234375
1606,-0.215576171875,-1.1077880859375,0.7049560546875,5.7403564453125
1607,1.8992919921875,-5.7403564453125,-2.618408203125,6.7474365234375
1608,-0.618408203125,-3.5247802734375,-0.201416015625,2.3162841796875
1609,-3.841064453125,0.7049560546875,1.812744140625,-0.1007080078125
1610,-2.43115234375,-2.7191162109375,-1.20849609375,-1.20849609375
1611,0.2879638671875,-1.20849609375,-3.7261962890625,-5.1361083984375
1612,-0.3162841796875,-2.01416015625,-5.7403564453125,-7.3516845703125
1613,-1.1219482421875,-1.007080078125,-2.01416015625,-7.7545166015625
1614,-0.01416015625,-4.1290283203125,-2.1148681640625,-12.0849609375
1615,-2.3304443359375,-4.632568359375,-1.9134521484375,-13.092041015625
1616,-0.9205322265625,-4.3304443359375,1.7120361328125,-16.8182373046875
1617,-0.1148681640625,-3.62548828125,-1.5106201171875,-18.2281494140625
1618,0.4893798828125,-1.007080078125,-4.7332763671875,-21.8536376953125
1619,-1.62548828125,-1.20849609375,1.3092041015625,-25.579833984375
1620,1.4964599609375,-2.4169921875,-3.5247802734375,-28.2989501953125
1621,0.2879638671875,0.604248046875,-3.1219482421875,-29.3060302734375
1622,-2.0283203125,0.201416015625,-2.5177001953125,-30.5145263671875
1623,-2.3304443359375,-2.7191162109375,-4.0283203125,-30.9173583984375
1624,-1.826904296875,-2.215576171875,-6.3446044921875,-30.5145263671875
1625,-0.1148681640625,-0.604248046875,-4.43115234375,-31.219482421875
1626,-5.3516845703125,-1.9134521484375,0.5035400390625,-25.78125
1627,-4.3446044921875,0.3021240234375,-3.22265625,-25.6805419921875
1628,-1.5247802734375,1.812744140625,-1.7120361328125,-24.169921875
1629,1.798583984375,1.3092041015625,-0.604248046875,-18.6309814453125
1630,0.590087890625,-0.8056640625,-1.9134521484375,-16.9189453125
1631,1.1943359375,-0.1007080078125,-5.438232421875,-15.71044921875
1632,1.1943359375,-0.1007080078125,-5.9417724609375,-13.7969970703125
1633,1.1943359375,-0.1007080078125,-3.826904296875,-9.66796875
1634,1.1943359375,-0.1007080078125,-6.4453125,-11.9842529296875
1635,1.1943359375,-0.1007080078125,-8.7615966796875,-9.466552734375
1636,1.1943359375,-0.1007080078125,-8.7615966796875,-4.3304443359375
1637,1.1943359375,-0.1007080078125,-5.7403564453125,-0.7049560546875
1638,1.1943359375,-0.1007080078125,-6.4453125,1.1077880859375
1639,1.1943359375,-0.1007080078125,-6.1431884765625,-0.201416015625
1640,1.1943359375,-0.1007080078125,-9.5672607421875,0.1007080078125
1641,1.1943359375,-0.1007080078125,-7.452392578125,4.5318603515625
1642,1.1943359375,-0.1007080078125,-3.424072265625,5.5389404296875
1643,1.1943359375,-0.1007080078125,-6.243896484375,6.04248046875
1644,1.1943359375,-0.1007080078125,-3.7261962890625,9.3658447265625
1645,1.1943359375,-0.1007080078125,-3.424072265625,10.1715087890625
1646,-3.438232421875,-1.812744140625,-1.9134521484375,10.1715087890625
1647,-0.215576171875,-3.9276123046875,-3.021240234375,10.1715087890625
1648,0.0865478515625,-5.9417724609375,-4.5318603515625,10.1715087890625
1649,0.590087890625,-1.3092041015625,-4.3304443359375,10.1715087890625
1650,-3.1361083984375,-5.1361083984375,-5.1361083984375,10.1715087890625
1651,-5.65380859375,-2.9205322265625,-5.1361083984375,10.1715087890625
1652,0.79150390625,-1.1077880859375,-6.1431884765625,10.1715087890625
1653,-3.035400390625,-7.5531005859375,-1.3092041015625,10.1715087890625
1654,0.6907958984375,-5.3375244140625,-3.5247802734375,10.1715087890625
1655,-3.438232421875,-3.7261962890625,-2.5177001953125,10.1715087890625
1656,-2.7332763671875,-1.7120361328125,-3.22265625,10.1715087890625
1657,-1.7261962890625,-4.1290283203125,-3.5247802734375,10.1715087890625
1658,-1.021240234375,-1.20849609375,-4.5318603515625,10.1715087890625
1659,-0.9205322265625,0.7049560546875,-5.9417724609375,10.1715087890625
1660,-3.1361083984375,-0.604248046875,-6.9488525390625,8.056640625
1661,-1.7261962890625,-2.215576171875,-7.452392578125,6.1431884765625
1662,-0.9205322265625,-2.215576171875,-7.855224609375,-0.7049560546875
1663,0.992919921875,-3.021240234375,-11.279296875,-3.1219482421875
1664,1.8992919921875,-2.01416015625,-9.466552734375,-3.424072265625
1665,-0.81982421875,-4.632568359375,-10.675048828125,-5.3375244140625
1666,-3.6396484375,-2.5177001953125,-8.9630126953125,-5.7403564453125
1667,1.2950439453125,-3.3233642578125,-7.5531005859375,-8.9630126953125
1668,-3.035400390625,1.3092041015625,-4.3304443359375,-10.9771728515625
1669,0.187255859375,0.8056640625,-6.7474365234375,-10.3729248046875
1670,-0.7191162109375,-1.3092041015625,-8.7615966796875,-14.4012451171875
1671,-0.3162841796875,1.1077880859375,-2.215576171875,-13.5955810546875
1672,-1.424072265625,1.409912109375,2.618408203125,-13.6962890625
1673,-5.1502685546875,2.81982421875,5.5389404296875,-16.11328125
1674,-2.632568359375,0.7049560546875,12.689208984375,-14.1998291015625
1675,2.604248046875,-2.3162841796875,10.1715087890625,-11.279296875
1676,0.2879638671875,2.81982421875,2.3162841796875,-7.9559326171875
1677,1.6978759765625,-1.9134521484375,3.021240234375,-7.855224609375
1678,1.8992919921875,0.8056640625,1.3092041015625,-0.9063720703125
1679,2.0,-0.1007080078125,1.20849609375,2.215576171875
1680,-1.1219482421875,0.201416015625,2.3162841796875,0.3021240234375
1681,3.409912109375,0.5035400390625,1.20849609375,3.021240234375
1682,-0.3162841796875,1.7120361328125,-0.3021240234375,5.5389404296875
1683,-2.1290283203125,0.0,2.3162841796875,10.3729248046875
1684,-3.5389404296875,0.604248046875,0.3021240234375,10.87646484375
1685,-2.3304443359375,-2.3162841796875,4.7332763671875,17.6239013671875
1686,-1.62548828125,-5.1361083984375,3.021240234375,14.300537109375
1687,-3.438232421875,0.5035400390625,4.833984375,15.4083251953125
1688,-2.3304443359375,-4.1290283203125,-1.5106201171875,11.480712890625
1689,0.2879638671875,-2.7191162109375,-0.604248046875,15.0054931640625
1690,-1.826904296875,-3.5247802734375,-0.604248046875,21.7529296875
1691,-1.021240234375,-2.618408203125,-2.5177001953125,25.4791259765625
1692,3.007080078125,-0.1007080078125,-1.007080078125,27.0904541015625
1693,0.79150390625,-5.5389404296875,-1.409912109375,30.9173583984375
1694,-1.62548828125,-5.035400390625,1.409912109375,37.46337890625
1695,-1.5247802734375,-7.049560546875,-1.9134521484375,37.3626708984375
1696,4.01416015625,-4.7332763671875,-4.3304443359375,38.470458984375
1697,1.8992919921875,-2.3162841796875,-3.1219482421875,39.88037109375
1698,2.8056640625,-0.604248046875,-4.0283203125,32.5286865234375
1699,-0.3162841796875,-3.826904296875,-1.5106201171875,22.760009765625
1700,-2.7332763671875,-1.611328125,-2.215576171875,10.675048828125
1701,-1.021240234375,-5.7403564453125,-1.9134521484375,-2.1148681640625
1702,-1.1219482421875,0.201416015625,-1.611328125,-7.1502685546875
1703,-4.7474365234375,-3.7261962890625,-0.1007080078125,-0.9063720703125
1704,-4.5460205078125,-2.3162841796875,0.9063720703125,4.632568359375
1705,3.9134521484375,-1.611328125,-3.5247802734375,5.438232421875
1706,0.2879638671875,-1.3092041015625,-1.7120361328125,5.7403564453125
1707,-0.7191162109375,0.201416015625,-0.7049560546875,0.7049560546875
1708,-1.826904296875,-5.035400390625,-4.229736328125,-2.7191162109375
1709,-5.9559326171875,-0.9063720703125,-5.438232421875,-5.5389404296875
1710,-0.3162841796875,2.7191162109375,-4.632568359375,-11.480712890625
1711,-2.1290283203125,2.01416015625,-5.1361083984375,-24.0692138671875
1712,-3.035400390625,-2.215576171875,-0.1007080078125,-34.9456787109375
1713,-3.9417724609375,3.7261962890625,2.9205322265625,-47.0306396484375
1714,0.992919921875,0.40283203125,3.1219482421875,-55.6915283203125
1715,1.8992919921875,-0.9063720703125,3.7261962890625,-52.4688720703125
1716,1.8992919921875,1.1077880859375,1.007080078125,-48.2391357421875
1717,1.8992919921875,1.3092041015625,-2.9205322265625,-38.470458984375
1718,1.8992919921875,2.1148681640625,-5.6396484375,-39.5782470703125
1719,1.8992919921875,0.0,-3.9276123046875,-39.5782470703125
1720,1.8992919921875,0.5035400390625,-2.215576171875,-36.9598388671875
1721,1.8992919921875,-1.611328125,0.5035400390625,-32.830810546875
1722,1.8992919921875,-6.4453125,4.9346923828125,-30.816650390625
1723,1.8992919921875,-1.812744140625,0.9063720703125,-27.8961181640625
1724,1.8992919921875,0.5035400390625,4.9346923828125,-27.996826171875
1725,1.8992919921875,-0.5035400390625,4.833984375,-24.774169921875
1726,1.8992919921875,-3.424072265625,1.9134521484375,-22.2564697265625
1727,1.8992919921875,-1.3092041015625,0.3021240234375,-17.120361328125
1728,1.8992919921875,-5.7403564453125,-0.1007080078125,-12.1856689453125
1729,1.8992919921875,-4.43115234375,0.5035400390625,-0.3021240234375
1730,1.6978759765625,2.215576171875,-0.201416015625,-0.3021240234375
1731,-2.3304443359375,-1.812744140625,-0.1007080078125,0.0
1732,-2.0283203125,0.604248046875,1.1077880859375,3.9276123046875
1733,1.8992919921875,-4.5318603515625,2.5177001953125,1.1077880859375
1734,1.0936279296875,-2.4169921875,-0.1007080078125,0.201416015625
1735,-0.81982421875,-7.2509765625,1.20849609375,1.409912109375
1736,-2.5318603515625,-3.62548828125,4.1290283203125,2.3162841796875
1737,1.8992919921875,-2.9205322265625,-0.5035400390625,1.3092041015625
1738,1.6978759765625,-0.9063720703125,0.1007080078125,7.3516845703125
1739,-3.9417724609375,-3.826904296875,-0.8056640625,12.1856689453125
1740,-0.4169921875,-3.5247802734375,-0.604248046875,15.911865234375
1741,-4.646728515625,-4.3304443359375,0.5035400390625,16.717529296875
1742,-3.5389404296875,-4.632568359375,0.1007080078125,15.6097412109375
1743,-0.3162841796875,3.9276123046875,2.9205322265625,20.6451416015625
1744,1.8992919921875,-5.23681640625,2.1148681640625,19.4366455078125
1745,-2.632568359375,-1.1077880859375,-2.81982421875,13.897705078125
1746,-3.7403564453125,-0.5035400390625,0.1007080078125,14.501953125
1747,2.201416015625,-2.81982421875,-1.7120361328125,13.5955810546875
1748,-3.6396484375,1.7120361328125,-0.604248046875,11.68212890625
1749,-1.7261962890625,4.1290283203125,-1.1077880859375,17.0196533203125
1750,-6.45947265625,3.826904296875,-1.007080078125,8.8623046875
1751,-0.9205322265625,4.229736328125,0.7049560546875,5.9417724609375
1752,-3.3375244140625,4.0283203125,-1.1077880859375,6.7474365234375
1753,-3.9417724609375,0.9063720703125,-3.5247802734375,5.7403564453125
1754,-1.9276123046875,2.3162841796875,-2.9205322265625,3.62548828125
1755,1.2950439453125,-1.1077880859375,-2.4169921875,2.01416015625
1756,-0.9205322265625,1.3092041015625,-9.3658447265625,2.9205322265625
1757,1.4964599609375,3.1219482421875,-2.1148681640625,-2.5177001953125
1758,-3.035400390625,-0.3021240234375,-2.5177001953125,0.1007080078125
1759,0.590087890625,-0.3021240234375,-2.215576171875,-3.9276123046875
